SampleIdent,,/
Title1,Configuration=Conf.Stage for flat samples/holders, Owner=User-1, Creation date=11/4/2011 2:21:53 PM,/
Title2,Goniometer=Theta/Theta; Minimum step size 2Theta:0.0001; Minimum step size Omega:0.0001,/
DiffrType,0000000011114271,/
DiffrNumber,  0,/
Anode,Cu,/
LabdaAlpha1, 1.54060,/
LabdaAlpha2, 1.54443,/
RatioAlpha21, 0.50000,/
DivergenceSlit,Fixed, 0.22,/
ReceivingSlit, 0.10,/
MonochromatorUsed,NO,/
GeneratorVoltage,  40,/
TubeCurrent,  40,/
FileDateTime, 10/19/2016 11:35:18 AM,/
DataAngleRange,  20.0158, 136.9898,/
ScanStepSize,   0.013,/
ScanType,Continuous,/
ScanStepTime,  58.40,/
RawScan
     946,     838,     921,     925,     897,     882,     895,     920
     893,     901,     937,     901,     899,     927,     923,     893
     874,     892,     895,     897,     870,     904,     845,     879
     858,     832,     859,     909,     909,     882,     873,     889
     900,     890,     869,     876,     894,     898,     856,     859
     869,     872,     875,     861,     875,     885,     875,     858
     866,     883,     873,     884,     892,     868,     857,     849
     818,     809,     827,     854,     878,     852,     845,     851
     845,     854,     852,     815,     866,     851,     851,     874
     862,     834,     803,     819,     807,     800,     821,     817
     841,     841,     788,     773,     810,     807,     865,     835
     813,     823,     825,     816,     801,     799,     825,     794
     835,     768,     780,     800,     810,     843,     740,     795
     787,     837,     790,     807,     817,     805,     801,     808
     789,     755,     797,     779,     824,     771,     796,     804
     781,     827,     815,     815,     799,     786,     797,     792
     766,     768,     760,     782,     753,     737,     788,     811
     777,     768,     813,     826,     799,     779,     793,     795
     800,     784,     770,     774,     758,     750,     749,     768
     783,     778,     786,     783,     784,     777,     751,     771
     814,     800,     771,     767,     790,     797,     746,     747
     736,     769,     759,     735,     764,     744,     747,     780
     774,     750,     740,     753,     730,     715,     757,     724
     749,     783,     729,     703,     720,     795,     735,     768
     754,     765,     691,     709,     754,     715,     721,     744
     744,     741,     712,     710,     664,     724,     782,     727
     791,     729,     734,     789,     775,     769,     737,     748
     717,     747,     694,     766,     747,     725,     695,     761
     716,     718,     722,     748,     724,     732,     709,     727
     714,     697,     699,     701,     706,     688,     674,     687
     714,     699,     703,     716,     703,     688,     680,     695
     698,     697,     704,     701,     709,     704,     716,     724
     713,     734,     708,     694,     707,     689,     696,     692
     676,     670,     672,     680,     710,     757,     729,     691
     695,     702,     712,     673,     682,     667,     660,     663
     674,     689,     671,     645,     628,     672,     669,     660
     687,     665,     665,     687,     669,     687,     673,     678
     696,     683,     688,     649,     694,     668,     645,     674
     684,     671,     626,     704,     709,     687,     626,     653
     673,     657,     643,     667,     628,     650,     637,     645
     692,     640,     658,     660,     662,     668,     688,     699
     664,     653,     646,     656,     665,     650,     648,     660
     652,     663,     677,     666,     665,     655,     670,     702
     708,     703,     698,     687,     681,     680,     687,     670
     663,     660,     654,     647,     639,     621,     597,     632
     660,     648,     629,     637,     631,     637,     655,     659
     637,     627,     613,     643,     680,     652,     641,     617
     619,     617,     633,     660,     647,     653,     619,     619
     625,     657,     647,     681,     618,     622,     627,     664
     609,     591,     581,     618,     640,     595,     594,     590
     635,     652,     656,     606,     608,     613,     596,     644
     639,     637,     564,     615,     637,     661,     602,     626
     634,     625,     649,     579,     638,     618,     617,     644
     658,     659,     603,     663,     699,     666,     633,     597
     607,     639,     623,     589,     573,     601,     614,     621
     658,     629,     598,     597,     587,     603,     621,     603
     584,     589,     601,     607,     630,     625,     599,     593
     592,     578,     564,     584,     590,     570,     559,     566
     582,     597,     576,     580,     572,     564,     579,     581
     578,     559,     566,     567,     554,     550,     565,     565
     573,     594,     585,     628,     569,     566,     552,     568
     524,     546,     538,     566,     548,     549,     555,     568
     562,     569,     579,     570,     560,     598,     583,     537
     582,     584,     560,     579,     592,     541,     573,     577
     551,     527,     575,     573,     554,     565,     572,     515
     586,     574,     559,     542,     574,     547,     565,     555
     525,     531,     562,     564,     574,     614,     581,     576
     583,     572,     532,     572,     559,     554,     541,     554
     566,     550,     539,     542,     536,     563,     558,     531
     535,     534,     532,     548,     574,     558,     550,     580
     579,     564,     575,     607,     639,     651,     661,     696
     698,     663,     624,     650,     654,     662,     636,     593
     618,     610,     626,     695,     605,     589,     622,     635
     669,     642,     632,     585,     604,     587,     620,     596
     601,     644,     606,     631,     661,     589,     624,     620
     617,     570,     613,     604,     618,     660,     644,     680
     599,     646,     641,     653,     611,     625,     620,     668
     647,     650,     649,     715,     721,     738,     747,     793
     876,     923,     975,    1107,    1223,    1338,    1558,    1815
    2113,    2491,    2976,    3475,    4198,    5740,    8780,   11910
   16240,   24454,   31718,   27521,   18257,   12886,   12461,   15204
   15325,   10742,    5904,    3294,    2042,    1453,    1183,    1054
     992,     907,     836,     794,     749,     713,     708,     692
     686,     654,     668,     664,     618,     626,     662,     632
     635,     659,     635,     566,     597,     624,     613,     571
     603,     597,     549,     567,     588,     577,     555,     594
     563,     582,     551,     529,     574,     597,     569,     554
     587,     555,     538,     566,     559,     600,     545,     501
     536,     508,     515,     570,     539,     522,     511,     531
     504,     519,     499,     511,     533,     517,     509,     536
     531,     519,     525,     517,     487,     486,     504,     536
     512,     521,     525,     474,     478,     497,     516,     544
     531,     491,     523,     535,     516,     471,     468,     493
     500,     498,     487,     485,     504,     488,     450,     450
     479,     496,     493,     476,     465,     477,     487,     474
     472,     486,     484,     474,     465,     468,     494,     502
     493,     508,     488,     474,     475,     479,     481,     456
     453,     460,     455,     470,     487,     504,     491,     493
     445,     443,     477,     475,     451,     438,     456,     465
     488,     448,     468,     491,     475,     454,     469,     467
     456,     474,     493,     481,     442,     503,     488,     444
     460,     443,     473,     491,     492,     487,     485,     493
     504,     470,     462,     443,     434,     425,     454,     483
     465,     494,     446,     481,     492,     453,     447,     451
     459,     449,     442,     448,     428,     442,     477,     484
     455,     466,     463,     472,     478,     452,     434,     462
     468,     441,     444,     448,     458,     464,     428,     405
     425,     437,     435,     452,     465,     459,     450,     440
     431,     423,     414,     426,     425,     410,     403,     409
     412,     446,     457,     391,     402,     442,     414,     434
     437,     425,     450,     438,     438,     400,     436,     437
     432,     451,     453,     457,     459,     419,     476,     479
     503,     568,     682,     817,     848,     692,     585,     532
     531,     605,     630,     507,     468,     447,     447,     408
     390,     429,     434,     415,     399,     425,     416,     413
     398,     403,     437,     415,     403,     397,     415,     412
     404,     387,     376,     402,     420,     430,     409,     399
     434,     391,     381,     383,     372,     357,     370,     395
     374,     403,     418,     405,     413,     413,     399,     404
     396,     393,     388,     368,     376,     402,     398,     403
     400,     392,     401,     380,     386,     394,     380,     397
     412,     400,     396,     380,     380,     384,     386,     374
     400,     399,     378,     381,     393,     385,     392,     431
     411,     391,     395,     365,     386,     411,     392,     417
     397,     397,     375,     358,     355,     358,     385,     419
     386,     418,     366,     388,     410,     378,     395,     379
     377,     425,     388,     380,     383,     400,     372,     426
     395,     396,     381,     367,     350,     398,     394,     415
     411,     388,     377,     368,     362,     363,     348,     376
     393,     403,     393,     385,     388,     345,     363,     388
     389,     368,     359,     335,     359,     386,     355,     362
     371,     374,     377,     367,     374,     369,     352,     372
     378,     367,     357,     342,     351,     369,     360,     343
     353,     357,     348,     341,     340,     368,     376,     374
     368,     361,     365,     344,     326,     342,     355,     350
     379,     374,     353,     349,     372,     362,     364,     347
     348,     373,     362,     330,     319,     341,     343,     354
     362,     342,     349,     310,     359,     331,     329,     336
     363,     330,     369,     352,     313,     341,     380,     371
     328,     328,     376,     348,     348,     342,     351,     332
     318,     361,     364,     371,     349,     366,     326,     346
     320,     353,     332,     333,     333,     370,     347,     327
     304,     311,     333,     350,     344,     330,     321,     334
     340,     323,     325,     358,     366,     338,     354,     342
     346,     349,     348,     324,     319,     322,     312,     350
     362,     337,     343,     364,     350,     326,     341,     351
     352,     347,     336,     327,     345,     353,     340,     314
     311,     349,     368,     336,     339,     350,     341,     319
     322,     329,     311,     298,     339,     351,     321,     327
     338,     293,     318,     326,     332,     351,     319,     334
     289,     306,     312,     325,     313,     282,     300,     321
     312,     319,     308,     318,     350,     331,     346,     318
     321,     346,     315,     281,     323,     323,     317,     304
     334,     327,     321,     318,     325,     332,     325,     329
     321,     333,     344,     335,     316,     316,     322,     295
     309,     329,     309,     315,     313,     328,     307,     306
     326,     312,     295,     285,     293,     306,     332,     327
     301,     316,     337,     326,     303,     304,     314,     320
     317,     313,     323,     320,     317,     295,     299,     317
     306,     290,     281,     321,     323,     293,     301,     333
     331,     298,     306,     308,     294,     284,     315,     313
     304,     313,     312,     321,     313,     346,     314,     284
     316,     321,     315,     313,     319,     311,     271,     305
     308,     310,     294,     315,     323,     286,     291,     287
     293,     312,     292,     278,     289,     297,     297,     315
     305,     312,     317,     310,     322,     298,     270,     288
     326,     313,     306,     310,     314,     291,     287,     282
     248,     274,     293,     284,     296,     291,     284,     300
     309,     302,     304,     287,     287,     267,     276,     290
     295,     295,     295,     308,     305,     303,     319,     308
     297,     305,     296,     293,     310,     303,     298,     307
     292,     284,     294,     297,     308,     299,     272,     271
     296,     269,     287,     296,     314,     289,     299,     294
     290,     303,     280,     287,     282,     268,     290,     266
     272,     295,     307,     262,     271,     268,     294,     288
     290,     308,     281,     261,     274,     272,     290,     312
     298,     289,     309,     316,     314,     312,     304,     328
     287,     318,     306,     325,     318,     289,     308,     298
     321,     304,     288,     285,     288,     285,     290,     289
     271,     278,     291,     283,     284,     289,     278,     285
     306,     300,     284,     277,     289,     269,     287,     298
     305,     300,     297,     300,     276,     262,     253,     264
     282,     286,     274,     282,     303,     309,     291,     283
     292,     285,     288,     287,     288,     296,     295,     295
     286,     300,     317,     306,     269,     270,     306,     294
     284,     276,     284,     261,     279,     310,     292,     278
     280,     262,     249,     297,     293,     265,     280,     298
     280,     274,     309,     273,     279,     286,     274,     282
     302,     280,     299,     259,     308,     289,     285,     292
     280,     313,     309,     260,     299,     281,     281,     271
     277,     275,     271,     297,     276,     278,     274,     300
     301,     315,     287,     293,     268,     289,     284,     281
     300,     302,     260,     281,     301,     292,     302,     266
     270,     297,     308,     284,     286,     302,     299,     287
     299,     331,     328,     316,     330,     327,     318,     341
     386,     408,     433,     452,     474,     532,     583,     667
     828,     971,    1138,    1620,    2398,    3314,    4157,    4817
    5303,    5060,    4388,    4163,    4043,    3569,    3047,    2911
    2970,    2745,    2411,    2141,    1830,    1425,     982,     709
     601,     504,     431,     404,     366,     366,     381,     334
     317,     352,     335,     273,     300,     318,     302,     303
     281,     305,     295,     284,     296,     290,     277,     291
     239,     248,     273,     287,     271,     282,     274,     271
     291,     273,     273,     271,     267,     273,     285,     276
     279,     279,     252,     246,     271,     245,     250,     263
     259,     258,     253,     260,     260,     257,     245,     238
     236,     222,     226,     256,     263,     237,     252,     273
     266,     245,     270,     279,     249,     259,     278,     255
     230,     229,     244,     253,     237,     234,     255,     264
     260,     277,     263,     242,     243,     236,     222,     231
     230,     247,     239,     237,     255,     243,     269,     242
     238,     218,     236,     239,     235,     264,     241,     237
     241,     256,     244,     233,     238,     245,     225,     237
     225,     241,     222,     227,     214,     236,     256,     242
     238,     228,     246,     230,     219,     277,     259,     233
     238,     239,     237,     210,     231,     226,     242,     255
     240,     237,     229,     239,     234,     263,     248,     231
     257,     240,     231,     233,     241,     236,     265,     265
     241,     243,     255,     247,     240,     251,     232,     235
     244,     240,     218,     219,     233,     228,     212,     215
     225,     243,     251,     234,     225,     237,     245,     234
     232,     229,     221,     236,     229,     213,     217,     234
     237,     224,     214,     218,     226,     222,     205,     205
     226,     216,     229,     229,     226,     212,     218,     217
     228,     251,     226,     236,     220,     238,     235,     200
     227,     234,     223,     212,     221,     220,     209,     223
     231,     220,     218,     229,     236,     230,     226,     236
     210,     205,     198,     227,     238,     204,     226,     222
     223,     211,     208,     211,     200,     229,     227,     228
     228,     254,     243,     223,     218,     217,     209,     214
     233,     217,     212,     216,     206,     216,     212,     207
     220,     211,     215,     227,     234,     217,     209,     203
     210,     209,     209,     231,     236,     222,     219,     212
     218,     225,     215,     216,     211,     210,     215,     218
     220,     212,     228,     231,     223,     233,     222,     210
     210,     199,     225,     255,     248,     250,     237,     241
     255,     273,     264,     284,     302,     307,     289,     277
     249,     264,     274,     259,     263,     270,     255,     256
     237,     239,     270,     240,     260,     198,     227,     230
     225,     190,     220,     208,     197,     227,     199,     186
     220,     197,     176,     175,     201,     177,     208,     187
     181,     207,     194,     178,     225,     227,     214,     214
     201,     199,     185,     209,     204,     198,     210,     220
     204,     202,     212,     209,     224,     217,     223,     222
     226,     214,     219,     239,     239,     229,     215,     217
     237,     243,     243,     236,     220,     206,     217,     227
     202,     194,     213,     222,     209,     198,     208,     209
     191,     202,     208,     189,     199,     203,     198,     221
     220,     213,     188,     203,     203,     203,     193,     211
     196,     215,     214,     199,     189,     233,     194,     191
     175,     186,     199,     171,     180,     191,     191,     170
     176,     197,     203,     194,     200,     199,     205,     182
     185,     180,     206,     193,     193,     207,     189,     216
     190,     200,     197,     187,     202,     196,     212,     210
     186,     213,     196,     205,     202,     218,     199,     177
     196,     196,     186,     188,     186,     206,     209,     213
     197,     192,     189,     183,     199,     202,     176,     190
     186,     184,     194,     188,     191,     187,     175,     181
     186,     193,     194,     192,     195,     199,     204,     201
     207,     202,     185,     180,     187,     208,     201,     194
     193,     201,     201,     191,     185,     186,     186,     167
     182,     180,     196,     181,     173,     203,     208,     183
     188,     177,     172,     173,     187,     178,     203,     215
     153,     145,     182,     178,     162,     210,     174,     164
     173,     160,     193,     176,     169,     176,     177,     174
     192,     188,     212,     198,     169,     183,     187,     190
     194,     191,     175,     166,     145,     184,     176,     170
     193,     190,     185,     196,     208,     199,     195,     204
     218,     267,     295,     283,     255,     232,     223,     188
     182,     204,     228,     234,     232,     231,     210,     182
     192,     199,     189,     174,     162,     156,     166,     180
     170,     165,     168,     168,     168,     166,     167,     175
     193,     197,     187,     207,     187,     174,     182,     184
     169,     172,     184,     176,     156,     164,     198,     204
     191,     163,     179,     180,     186,     155,     171,     174
     183,     177,     180,     181,     174,     162,     168,     174
     160,     192,     190,     179,     168,     192,     163,     193
     191,     171,     164,     174,     177,     204,     178,     150
     194,     166,     176,     171,     184,     174,     176,     159
     217,     184,     163,     182,     162,     171,     180,     167
     169,     177,     178,     168,     160,     183,     177,     172
     173,     172,     152,     170,     191,     183,     178,     173
     171,     181,     175,     172,     171,     174,     191,     181
     166,     181,     181,     187,     188,     175,     178,     168
     160,     150,     155,     187,     198,     186,     177,     169
     178,     173,     167,     169,     175,     181,     168,     157
     180,     184,     180,     166,     162,     181,     173,     176
     184,     199,     179,     190,     191,     189,     195,     216
     208,     216,     213,     215,     218,     227,     255,     333
     380,     521,     644,     783,     872,    1031,    1257,    1429
    1781,    1997,    2108,    1714,    1241,     946,     849,     773
     821,     863,     975,    1028,    1099,     926,     666,     488
     402,     313,     253,     270,     266,     238,     181,     200
     221,     218,     204,     181,     189,     184,     180,     191
     178,     171,     181,     167,     165,     170,     171,     170
     161,     159,     164,     179,     198,     191,     181,     170
     167,     174,     163,     163,     164,     167,     170,     162
     167,     169,     155,     149,     168,     177,     171,     155
     149,     175,     184,     172,     179,     177,     153,     128
     133,     162,     181,     156,     159,     151,     141,     150
     146,     166,     175,     165,     150,     171,     159,     175
     177,     166,     152,     167,     143,     165,     172,     145
     190,     173,     154,     142,     170,     162,     149,     184
     157,     150,     164,     157,     162,     142,     160,     157
     151,     131,     147,     151,     164,     165,     161,     168
     178,     173,     162,     161,     172,     171,     155,     154
     144,     142,     153,     146,     149,     159,     163,     150
     159,     160,     148,     148,     146,     154,     163,     156
     156,     149,     153,     157,     154,     153,     147,     157
     168,     162,     158,     166,     168,     156,     145,     147
     161,     152,     143,     157,     149,     144,     149,     151
     164,     152,     145,     140,     147,     164,     156,     170
     156,     149,     165,     167,     177,     169,     154,     174
     159,     164,     137,     173,     165,     162,     151,     145
     154,     147,     121,     145,     159,     160,     143,     148
     159,     140,     142,     146,     139,     158,     146,     164
     148,     150,     154,     149,     156,     161,     134,     150
     152,     138,     145,     151,     151,     156,     155,     148
     134,     146,     146,     142,     149,     140,     133,     135
     133,     127,     130,     140,     143,     138,     139,     160
     159,     155,     149,     143,     143,     147,     154,     155
     146,     139,     142,     147,     148,     148,     143,     142
     152,     153,     144,     136,     132,     137,     143,     142
     146,     137,     137,     140,     161,     157,     140,     149
     161,     154,     140,     144,     149,     158,     139,     126
     140,     158,     136,     139,     144,     148,     143,     148
     136,     138,     145,     145,     149,     171,     149,     143
     139,     141,     142,     152,     146,     146,     157,     157
     148,     134,     162,     138,     144,     128,     154,     159
     139,     143,     143,     158,     160,     158,     155,     147
     126,     132,     151,     144,     136,     138,     153,     157
     148,     145,     135,     133,     135,     137,     148,     142
     134,     140,     143,     150,     154,     148,     131,     136
     148,     154,     149,     145,     151,     153,     145,     133
     146,     156,     143,     139,     140,     147,     149,     145
     134,     136,     129,     114,     130,     123,     122,     122
     132,     141,     136,     124,     129,     135,     145,     129
     141,     155,     146,     140,     158,     144,     135,     130
     153,     146,     150,     147,     139,     136,     136,     129
     144,     151,     155,     133,     136,     118,     134,     156
     134,     148,     150,     139,     117,     127,     124,     126
     135,     145,     121,     139,     144,     157,     128,     126
     131,     148,     133,     133,     136,     128,     137,     140
     130,     149,     151,     130,     127,     120,     130,     131
     135,     152,     150,     141,     139,     132,     138,     135
     123,     127,     135,     142,     140,     133,     128,     136
     132,     132,     151,     152,     144,     141,     134,     129
     136,     143,     135,     132,     144,     138,     122,     129
     155,     136,     123,     123,     135,     145,     144,     132
     117,     150,     143,     127,     140,     139,     138,     145
     152,     163,     140,     137,     133,     128,     131,     139
     148,     146,     153,     161,     155,     149,     128,     158
     140,     126,     128,     145,     140,     117,     121,     130
     120,     143,     154,     126,     137,     147,     150,     139
     143,     126,     137,     142,     131,     149,     129,     130
     132,     138,     160,     157,     137,     142,     131,     123
     135,     144,     139,     135,     141,     155,     133,     134
     137,     139,     142,     134,     136,     138,     151,     149
     146,     154,     157,     153,     131,     118,     127,     141
     147,     136,     132,     140,     139,     145,     152,     144
     140,     136,     130,     135,     139,     134,     133,     127
     144,     142,     143,     141,     132,     143,     145,     137
     144,     162,     142,     134,     143,     122,     127,     142
     146,     146,     116,     136,     140,     142,     131,     128
     132,     126,     132,     142,     142,     137,     155,     145
     144,     154,     146,     138,     135,     111,     139,     151
     151,     171,     140,     142,     137,     146,     130,     150
     143,     145,     166,     159,     149,     174,     155,     145
     148,     165,     155,     176,     168,     170,     166,     155
     179,     182,     177,     188,     178,     189,     204,     198
     214,     229,     259,     296,     356,     451,     565,     756
    1105,    1563,    2154,    2704,    2775,    2206,    1403,     872
     626,     495,     465,     523,     636,     800,    1036,    1331
    1481,    1272,     874,     583,     399,     293,     233,     217
     202,     193,     195,     189,     185,     190,     165,     187
     155,     146,     156,     147,     138,     145,     146,     140
     146,     126,     163,     156,     141,     148,     145,     149
     140,     141,     143,     162,     158,     171,     176,     145
     150,     135,     145,     150,     131,     169,     144,     157
     122,     137,     132,     127,     109,     142,     136,     119
     130,     126,     138,     139,     125,     134,     135,     136
     147,     143,     122,     141,     129,     138,     160,     142
     143,     147,     146,     143,     120,     128,     134,     140
     135,     129,     129,     140,     141,     134,     130,     134
     130,     135,     136,     117,     105,     109,     130,     135
     121,     121,     123,     118,     134,     140,     124,     124
     129,     137,     143,     129,     106,     137,     137,     128
     126,     126,     135,     127,     123,     145,     137,     125
     125,     127,     138,     135,     127,     118,     121,     124
     115,     118,     126,     134,     115,     126,     123,     121
     130,     123,     125,     130,     136,     130,     132,     129
     110,     126,     120,     120,     125,     131,     136,     140
     134,     124,     116,     119,     127,     117,     108,     127
     114,     115,     117,     119,     111,     121,     119,     113
     121,     121,     127,     140,     127,     114,     118,     136
     149,     134,     138,     144,     137,     124,     114,     125
     123,     121,     115,     127,     139,     137,     131,     117
     111,     114,     125,     131,     129,     127,     123,     126
     131,     106,     105,     122,     120,     116,     117,     113
     112,     125,     124,     110,     121,     121,     106,     114
     117,     109,     126,     131,     124,     122,     121,     119
     108,     109,     116,     110,     126,     123,     123,     132
     127,     114,     102,     100,     121,     117,     117,     120
     114,     131,     106,     118,     101,      97,     126,     148
     144,     126,     109,     109,     113,     119,     101,     103
     130,     129,     126,     131,     119,     130,     135,     119
     129,     119,     136,     126,     124,     117,     110,     106
     109,     119,     130,     138,     127,     116,     117,     111
     110,     129,     135,     124,     113,      95,      93,     108
     113,     113,     116,     119,     122,     139,     128,     103
     112,     120,     116,     121,     134,     131,     119,     111
     124,     123,     120,     114,     122,     131,     126,     131
     128,     121,     118,     116,     121,     119,     122,     125
     112,     125,     124,     110,     127,     122,     139,     134
     113,     112,     112,     124,     131,     116,     107,     118
     120,     114,     103,     132,     122,     105,     121,     115
     110,     123,     133,     104,      98,     109,     138,     130
     108,     118,     131,     136,     122,      97,     108,     113
     125,     112,     116,     120,     132,     121,     122,     147
     124,     107,     127,     133,     121,     118,     117,     119
     122,     123,     102,     104,     111,     125,     119,     123
     122,     127,     126,     122,     128,     135,     136,     136
     134,     123,     132,     134,     129,     129,     122,     130
     121,     120,     127,     120,     125,     131,     137,     126
     130,     124,     117,     125,     133,     126,     114,     125
     128,     122,     119,     116,     134,     128,     119,     103
     107,     127,     122,     142,     127,     124,     124,     128
     132,     122,     128,     128,     146,     136,     130,     159
     118,     136,     126,     120,     129,     126,     134,     126
     108,     129,     141,     137,     146,     125,     139,     125
     133,     104,     117,     117,     115,     150,     138,     107
     125,     135,     136,     133,     122,     133,     131,     137
     149,     130,     137,     155,     155,     136,     131,     143
     153,     156,     161,     146,     135,     137,     153,     149
     139,     134,     131,     141,     136,     133,     142,     147
     152,     143,     132,     133,     131,     132,     133,     130
     123,     129,     136,     140,     135,     139,     142,     138
     130,     133,     130,     130,     145,     144,     133,     127
     132,     146,     159,     148,     140,     146,     132,     132
     133,     158,     126,     131,     129,     144,     146,     139
     135,     128,     138,     141,     120,     138,     124,     131
     121,     145,     166,     151,     140,     131,     147,     162
     155,     161,     166,     181,     181,     193,     191,     178
     176,     172,     200,     206,     180,     193,     198,     226
     242,     258,     266,     298,     346,     389,     460,     591
     813,    1147,    1661,    2204,    2747,    3114,    3359,    3381
    3065,    2502,    1913,    1428,    1055,     834,     765,     794
     926,    1157,    1420,    1581,    1719,    1800,    1655,    1402
    1129,     865,     633,     479,     372,     296,     247,     235
     224,     209,     190,     191,     169,     165,     177,     155
     170,     163,     138,     132,     133,     140,     126,     141
     153,     149,     136,     128,     126,     136,     130,     142
     119,     122,     160,     138,     131,     138,     139,     138
     119,     119,     136,     143,     127,     143,     120,     121
     119,     125,     107,     108,     106,     134,     142,     123
     140,     127,     130,     107,     120,     142,     125,     114
     125,     124,     135,     126,     110,     108,     130,     117
     117,     129,     129,     102,     116,     123,     131,     116
     108,     115,     110,     119,     123,     107,     110,     115
     106,     109,     109,      98,     113,     120,     108,     119
     138,     123,     102,     107,     131,     136,     105,      96
     110,     125,     115,     107,     108,     107,     113,     118
     124,     131,     113,     110,     134,     129,     122,     115
     123,     122,     115,     110,     132,     124,     127,     130
     116,     114,     117,     116,     132,     131,     126,     111
     110,     125,     128,     119,      97,     106,     110,     129
     113,      89,     114,     122,     118,     106,     119,     111
     107,     113,     128,     112,      98,     109,     121,     124
     100,     109,     121,     115,     122,     127,     126,     119
     102,      99,     102,     113,     120,     130,     124,     113
     115,      97,     107,     135,     127,     114,     114,     110
     106,      98,     100,     108,     113,     112,     111,     114
     109,     106,     106,     106,     116,     116,     109,     111
     116,     120,     122,     124,     108,     104,     109,      99
      98,     108,     112,     107,     106,     111,     113,      99
      99,     106,      97,     118,     107,     105,     104,     135
     134,     112,     109,     117,     109,      97,     114,      94
     104,     106,     103,     112,     104,     101,     114,     103
     113,     106,     105,     112,     104,     109,      97,     112
      92,     134,     108,     125,     101,     115,     111,     106
      97,     100,     113,     105,     125,     117,     110,     109
      93,      93,     104,     112,     105,      97,     105,     109
     108,     109,      89,      93,     101,     110,     112,      98
     102,     101,      95,     101,     104,     101,     100,     102
     106,     105,     104,     108,     115,     107,     102,     104
     102,     103,     106,     113,     106,      93,      91,      96
     113,     119,     110,      96,      98,     114,     115,     110
     112,     112,     116,     109,      95,     110,     114,      95
      98,     110,     101,     101,     117,     120,     105,     101
     109,      95,      91,      93,     104,      86,      97,     109
     112,     106,     112,      96,      84,     116,     103,     108
     104,     111,     114,     106,     106,     104,      85,     104
     106,      99,      94,     117,     105,     101,      93,     102
     100,     116,     105,     106,     107,     114,     110,      90
      98,     112,     108,     107,      96,      92,      99,      99
     102,     101,     124,     117,     101,     107,     113,     104
      98,     105,     106,     111,     113,     105,      91,      92
     101,     107,     104,     102,     101,      97,      96,     100
      96,      94,     107,     110,     107,     100,      97,     100
      92,     103,     116,     113,     123,     122,     117,     112
     108,     104,     106,     108,     121,     110,      92,      96
     118,     103,     107,     104,     102,     116,     107,      98
     114,     103,      87,     104,      98,      94,      95,     110
     106,     100,      99,     102,     121,     111,     111,      97
     115,     109,     101,      96,     109,     117,     104,     101
     101,      83,     101,      89,     102,     107,     104,     113
     118,     103,      99,     115,      88,     109,      98,      99
      99,      99,     106,      99,     100,     105,     117,     107
     113,     119,     110,      95,      93,     103,     102,     102
     103,     106,      99,     102,     117,     114,      98,     100
     106,     105,     108,     114,     110,     107,      98,      91
     105,     114,     118,     101,      95,     115,     129,     117
     117,     118,     110,     102,     111,     119,     122,     133
     125,     129,     123,     131,     125,     132,     137,     139
     143,     144,     145,     149,     151,     169,     175,     179
     195,     213,     263,     315,     410,     552,     824,    1149
    1351,    1355,    1453,    1211,     971,     779,     586,     374
     356,     285,     261,     289,     307,     363,     406,     531
     677,     749,     750,     678,     596,     500,     406,     313
     241,     206,     164,     166,     157,     150,     129,     128
     123,     113,     109,     112,     107,     103,     105,     101
     113,     101,     105,     117,     115,     105,      95,     104
     112,     109,     102,     108,     101,      89,      96,     101
     107,     119,     113,      98,      95,      96,     105,     101
      94,     101,     108,     105,     103,     107,     100,      86
      78,      88,     110,     105,     105,     110,     101,      84
      98,     103,      99,     100,      97,      95,      93,     111
      90,     108,      97,      78,      86,      94,     102,     104
     116,      91,      89,     103,     113,     103,      90,      98
      78,     106,     111,      71,     101,     103,      94,      83
      85,     113,      90,     104,     109,     100,      98,     107
     101,     110,      97,     106,     112,     103,     101,     111
     121,      96,      90,      88,      99,      95,     100,     107
      81,     101,      99,     106,     117,     109,     100,      89
      98,      87,      86,      98,      95,      95,      91,      96
     102,      89,      91,     101,      95,      87,      84,      95
      91,      80,      90,      93,      89,      88,      95,      91
      88,      93,      86,      98,      87,      96,      85,      86
     102,     103,      98,      89,      82,      80,      75,      79
     114,      85,      94,      90,      87,      75,      83,      83
      78,      90,      98,      80,      87,      98,      87,      97
      99,      85,     107,     101,      91,      95,     107,      87
      88,      90,      78,     111,      91,      91,     101,      82
      76,      92,      80,      89,      88,      80,      82,      81
      89,      90,      87,      84,     103,      93,      75,      75
      76,      67,      86,      99,      85,      87,      88,      84
      95,      95,      88,      94,      99,      89,      98,      95
      93,      88,      91,     101,      99,      96,      92,      80
      81,      94,     100,     103,      98,      89,      87,      95
      97,      77,      74,      74,      69,      91,      94,      92
      88,      85,      86,      82,      70,      86,      86,      82
      85,      80,      80,      82,      96,      88,      95,     104
      77,      81,      98,      91,      79,      86,      70,      78
     105,      80,      95,      91,      79,     101,     102,     111
      89,      73,      76,      84,      91,      87,      82,      99
      94,     101,     102,      84,      82,      86,      93,      81
      89,      86,      81,      88,      79,      75,      82,      92
      86,      91,      92,      97,      94,      83,      89,      94
      98,     107,     103,      94,      96,      88,      88,      99
     101,     101,     102,     103,     106,     105,     107,      99
      96,      92,      86,      84,      84,      90,     107,     117
     102,      89,      90,      89,      91,      99,      97,      91
      79,      82,      85,      79,      86,      98,      91,      88
      94,      94,     101,      87,      82,      80,      84,      83
      78,      79,      63,      73,      74,      71,      89,      99
      95,      87,      75,      99,      99,      82,      79,      69
      83,      84,      96,      76,      85,      82,      88,      85
      98,      85,      93,     106,     106,      76,      85,      99
      68,      70,      78,      83,      81,     107,      95,      89
      86,      88,      74,      89,      85,      85,     104,      88
      98,      97,      96,      96,      85,      81,      92,      87
      85,      83,      77,      74,      80,      79,      82,      95
      92,      88,      90,      86,      90,      87,      79,      83
      92,      95,      87,      84,      89,      88,      84,      83
      81,      87,      98,      93,      89,      79,      70,      73
      82,      83,      84,      90,     100,      86,      89,      86
      63,      73,      75,      87,      97,      82,      74,      79
      84,      76,      76,      76,      84,      72,      73,      79
      87,      92,      81,      95,      73,      76,      81,      80
      99,      80,      81,      81,     102,      85,      89,      96
      84,      78,      77,      96,      80,      85,      73,      76
      91,      83,      80,      80,      83,      83,      92,      97
      82,      76,      82,      77,      77,      87,      80,      92
      83,      83,      77,      82,      87,      83,      78,      82
      86,      90,      87,      76,      78,      67,      75,      77
      65,      63,      73,      76,      79,      83,      77,      77
      82,      87,      78,      78,      88,      82,      83,      95
     104,      91,      83,      84,      78,      77,      70,      77
      77,      76,      80,      71,      72,      84,      88,      79
      85,      75,      80,      85,      71,      75,      82,      84
      81,      69,      86,      76,      90,      96,      88,      91
      76,      68,      76,      78,      78,      78,      87,      77
      74,      79,      74,      96,      73,      76,      88,      81
      75,      81,      73,      80,      72,      77,      65,      81
      87,      91,      88,      77,      73,      87,      87,      87
      72,      75,      74,      69,      84,      72,      67,      76
      75,      80,      84,      74,      84,      84,      72,      72
      81,      85,      92,      86,      77,      73,      84,      83
      67,      58,      61,      74,      76,      63,      61,      74
      87,      94,      92,      92,      90,      85,      87,      81
      79,      85,      93,      88,      88,      78,      63,      65
      72,      90,      99,      84,      81,      71,      75,      87
      90,      85,      88,      61,      79,      83,      82,      63
      78,      61,      81,      94,      84,      93,      71,      84
      80,      88,      65,      72,      63,     101,      91,      71
      61,     100,      73,      72,      79,      87,      81,      89
      80,      78,      84,      76,      96,      79,      83,      83
      80,      85,      98,      82,      93,      87,      95,      85
      78,      73,      72,      74,      80,      76,      78,      77
      73,      79,      79,      78,      71,      78,      86,      78
      72,      78,      76,      73,      85,      87,      77,      71
      76,      76,      73,      72,      74,      87,      88,      83
      83,      87,      79,      73,      85,      96,      98,      80
      75,      74,      85,      83,      78,      96,      84,      86
      74,      72,      73,      89,      89,      96,      77,      97
      94,      90,      92,     102,      88,      93,      82,      70
      80,      80,      85,      77,      75,      84,      73,      81
      76,      88,      74,      90,      85,      84,      82,      62
      83,      79,      72,      94,      93,      66,      73,      82
      94,      80,      85,      75,      76,      57,      93,      94
      76,      75,      78,      94,      92,      98,      89,      79
      78,      79,      65,      79,      72,      78,      72,      71
      87,      84,      80,      76,      76,      68,      63,      72
      85,      92,      96,      86,      88,      86,      72,      73
      79,      86,      90,      80,      68,      78,      79,      77
      80,      86,      80,      85,      89,      80,      88,      81
      86,      85,      90,      80,      73,      72,      72,      64
      68,      77,      80,      73,      82,      68,      80,      85
      74,      71,      88,      79,      67,      60,      68,      76
      81,      83,      95,      70,      64,      86,      73,      77
      63,      80,      66,      82,      70,      71,      90,      71
      94,      80,      82,      81,      84,      70,      71,      69
      84,      80,      81,      87,      85,      70,      76,      68
      76,      73,      80,      89,      72,      72,      71,      79
      84,      73,      65,      67,      85,      94,      84,      77
      82,      85,      74,      73,      75,      74,      73,      75
      82,      78,      75,      91,      93,      82,      84,      88
      89,      80,      78,      88,      81,      76,      81,      79
      75,      66,      62,      74,      74,      78,      77,      78
      63,      69,      75,      70,      72,      74,      82,      92
      85,      89,      88,      67,      66,      72,      84,      71
      70,      86,      74,      81,      74,      80,      75,      71
      74,      87,      78,      76,      78,      75,      65,      81
      85,      73,      67,      81,      74,      75,      94,      76
      73,      83,      84,      75,      71,      85,      87,      65
      69,      77,      79,      87,      83,      75,      78,      93
      94,      92,      98,      84,      81,      83,      80,      85
      86,      81,      84,      90,      88,      84,      74,      79
     103,      88,      82,      92,      95,      91,      83,      87
      94,     105,     111,     122,     136,     151,     182,     205
     261,     311,     318,     307,     320,     321,     264,     215
     169,     147,     134,     126,     108,     119,     115,     109
     118,     130,     137,     154,     174,     179,     184,     171
     203,     210,     204,     185,     155,     151,     121,     110
      89,     106,      94,      91,      86,      89,      89,      87
      87,      70,      71,      87,      68,      77,      86,      79
      92,      65,      77,      72,      95,      86,      86,      84
      92,      79,      87,      74,      81,      97,      91,      91
      82,      95,      90,      79,      67,      82,      80,      82
      73,      69,      79,      81,      79,      79,      85,      83
      70,      74,      84,      94,      94,      83,      72,      77
      78,      76,      79,      79,      80,      89,      99,      82
      70,      80,      85,      91,      84,      89,      85,      89
      89,      79,      80,      68,      76,      81,      79,      83
      68,      73,      84,      82,      74,      69,      68,      79
      86,      84,      97,      93,      88,      92,      75,      69
      80,      94,      85,      88,      84,      87,      86,      82
      97,      94,      76,      86,      84,      81,      86,      63
      86,      94,      85,      77,      74,      78,      93,      95
      71,      80,      86,      84,      81,      72,      57,      68
      85,      78,      71,      80,      86,      81,      87,      83
      84,      71,      76,      86,      83,      72,      78,      79
      76,      79,      86,      81,      74,      75,      75,      72
      71,      71,      72,      70,      77,      84,      81,      79
      82,      80,      77,      82,      80,      76,      72,      78
      86,      70,      67,      81,      86,      91,      79,      86
      99,      85,      83,      76,      76,      68,      90,      86
      83,      77,      80,      74,      72,      78,      93,      68
      78,     100,      93,      76,      80,      73,      70,      98
      97,      72,      66,      60,     101,      82,      71,      87
      83,      80,      77,      89,      91,      75,      89,      95
      70,      81,      79,      85,      98,      69,      69,      73
      84,      86,      93,      86,      75,      82,      90,      76
      74,      77,      85,     101,      81,      81,      91,      84
      74,      80,      87,      88,      92,      87,      83,      78
      86,      85,      69,      71,      81,      81,      86,      89
      86,      86,      84,      86,      86,      95,      94,      84
      75,      69,      77,      75,      76,      77,      80,      87
      85,      83,      83,      83,      85,      80,      82,      77
      75,      78,      92,      91,      86,      73,      80,      91
      83,      84,      76,      67,      76,      77,      86,      76
      81,      65,      81,      87,      78,      83,      75,      69
      85,     105,      83,      73,      81,      83,      78,      83
      71,      82,      79,      77,      77,      85,      80,      61
      72,      87,      89,      71,      87,      82,      81,      84
      81,      86,      90,      85,      85,      88,     102,      86
      81,      82,      85,      98,      88,      89,      84,      95
      82,      77,      80,      80,      81,      77,      81,      83
      71,      63,      74,      89,      93,      85,      77,      86
      90,      91,      89,      81,      85,      85,      80,      84
      91,      91,      87,      78,      75,      82,      89,      85
      80,      73,      83,      88,      82,      85,      80,      81
      76,      81,      93,      78,      87,      74,      86,      89
      84,      85,      77,      75,      84,      85,      79,      78
      94,      90,      78,      65,      73,      88,      68,      76
      79,      96,      85,      88,      66,      73,      99,      85
     100,      89,      80,      67,      83,      84,      80,      91
      90,      82,      92,      89,      82,      86,      85,      95
      95,      81,      66,      87,      88,      88,      86,      92
     105,      93,      78,      85,      81,      87,      88,      95
      97,      94,      93,      93,      91,      89,      97,      95
      88,      88,     100,      96,      89,      87,      84,      81
      92,     103,      89,      82,      85,      87,      87,      89
      85,      82,      84,      83,     101,     106,      98,     107
     111,     108,     101,     110,     114,     116,     102,     119
     138,     158,     147,     145,     171,     189,     226,     290
     344,     412,     538,     534,     576,     612,     537,     482
     349,     306,     212,     176,     174,     148,     152,     133
     145,     129,     126,     150,     158,     152,     179,     186
     202,     268,     290,     299,     347,     341,     304,     267
     232,     198,     173,     151,     132,     106,     109,     114
      87,      87,      89,      96,     108,      91,      85,      95
      95,      87,      81,      76,      83,      85,      94,      86
      95,      98,      98,      91,      85,      84,      94,     101
      99,      81,      72,      87,      97,      95,      76,      73
      90,      91,      87,      83,      80,      75,      79,      91
      89,      89,      87,      80,      82,      75,      82,      91
      98,      84,      74,      96,      89,      92,      89,      92
      89,      78,      98,      86,      87,      91,      79,      92
      94,      89,      75,      69,      99,      94,      79,      93
      95,      87,      87,      79,      77,     102,      90,      79
      86,      85,      80,      76,      83,      81,      78,      73
      78,      76,      98,      70,      94,      96,      83,      64
      81,      92,      84,      88,      93,      75,      94,      95
      85,      82,      97,      95,      83,      89,      93,      82
      74,      82,      87,      91,      83,      77,      80,      86
      81,      72,      77,      85,      91,      89,      70,      70
      91,      85,      72,      83,      90,      91,      87,      80
      78,      86,      92,      79,      80,      94,      85,      76
      78,      96,      87,      85,      83,      85,      97,      96
      93,      91,      85,      77,      80,      90,      83,      86
      85,      71,      72,      88,      92,      78,      84,      77
      78,      74,      74,      78,      75,      82,      92,      91
      88,      90,      79,      74,      83,      79,      68,      78
      86,      94,      85,      96,      92,      93,      84,      74
      85,      82,      97,      91,      85,      87,      94,      93
      68,      75,      94,      88,      94,      77,      84,      86
      81,      91,      73,      83,      83,      91,      85,      82
      90,      90,      84,      80,      83,      79,      69,      70
      79,      86,      81,      78,      75,      76,      78,      91
      97,      84,      93,      94,      82,      79,      77,      88
      93,      85,      78,      83,      83,      77,      90,      85
      73,      83,      91,      87,      88,      86,      73,      80
      84,      81,      70,      85,      94,      94,      92,      99
      96,      92,      95,      95,      96,      75,      75,      99
      73,     101,      88,      73,     104,      94,      98,      61
      71,      71,      81,      94,      93,      99,      88,      73
      89,      74,      82,     106,      81,      86,      99,      91
      84,      83,      76,      82,      83,     100,     101,      89
     100,      90,      90,      81,      79,      93,      96,      85
      85,      98,      93,      94,      82,      80,      94,     102
      84,      70,      80,      86,      84,      83,      82,      89
      87,      71,      81,      97,      94,      93,      90,      89
      97,      97,      86,      81,      87,      96,      85,      73
      72,      78,      79,      75,      84,      80,      78,      75
      82,      78,      78,      82,      93,      86,      95,      77
      86,      93,      83,      79,      77,      88,      93,      86
      89,      79,      85,      84,      91,      80,      87,      96
      89,      76,      85,      88,      90,      93,      90,      88
      77,      78,     100,      97,      91,      79,      82,      79
      82,      88,      94,      87,      78,      88,      87,      69
      66,      72,      79,      88,      73,      79,      73,      77
      88,      93,      92,      90,      86,      88,      82,      91
      93,      93,      96,      96,      89,      89,      82,      78
      73,      78,      83,      85,      85,      83,      80,      77
      83,      92,      88,      99,     111,      98,      97,      92
      97,      92,      87,      99,      85,      70,      76,      79
      82,      97,      82,      95,      97,      94,      90,     104
      96,     103,     102,     101,      89,      93,      76,      95
      98,      91,      89,      96,      91,      90,      87,      91
      93,      93,      94,      94,      94,     105,      88,     103
     104,     112,     104,      90,     122,      98,     115,     122
     135,     133,     167,     200,     198,     243,     265,     360
     389,     434,     443,     466,     447,     345,     276,     231
     226,     196,     168,     155,     146,     132,     128,     122
     118,     129,     130,     130,     126,     137,     145,     162
     176,     202,     214,     229,     244,     262,     279,     252
     206,     191,     176,     142,     132,     132,     119,     115
     116,     113,     110,      94,      88,     105,     100,      96
     100,     111,     106,     102,     107,     110,      95,      95
      87,     100,     102,      93,      88,      89,      89,      88
     102,      86,      78,      96,      88,      82,      82,      76
      80,      83,      78,      90,      95,      96,     108,      89
      97,      93,      87,      72,      77,      93,      81,      87
      91,      94,     106,      76,      88,      79,      88,      85
      79,     106,     101,      97,      80,      89,      93,      93
      86,      92,      89,      64,      76,      86,      82,      79
      81,      87,      86,     100,      93,      85,      84,      81
      79,      77,      84,      80,      92,     103,     102,      96
      89,      91,      95,      86,      80,      89,      90,      89
      84,      79,      85,      87,      95,      92,      84,      83
      83,      87,      88,     106,     102,      89,      84,      91
      88,      86,     101,     103,      88,      82,      92,     110
     104,      86,      75,      82,      89,      93,      81,      79
      96,      83,      73,      80,      99,      81,      79,      92
      87,      91,      69,      83,      89,      75,      87,      94
      89,     120,      69,     100,      87,      92,      85,      71
      79,      99,      86,      82,      93,      76,     103,      90
     104,     107,      86,      75,      94,      94,      93,     104
     102,      84,      88,     105,      87,     101,      83,      83
      87,      91,      94,      87,      81,      87,     102,      84
      78,      89,      84,      80,      86,      80,      83,      77
      72,      90,     105,     101,      98,      98,      86,      83
      90,      94,      97,      83,      75,      79,      86,      90
      86,      84,      82,      83,      93,      96,      77,      82
      82,      81,      85,      86,      69,      81,      92,      98
      93,      81,      85,      74,     101,     101,      91,      86
      96,      86,      74,      93,      90,      83,      97,      98
      89,      89,     102,      84,      89,      99,     103,     101
      92,      82,      97,      98,      94,      99,     102,      73
      82,      87,      93,      98,      90,      94,      95,      81
      83,      88,      93,      89,      92,     102,     103,      99
      85,      96,      94,      94,      86,      86,      86,      88
      94,      97,      96,      97,      99,      95,      83,      81
      86,      93,      96,      90,      85,      86,      88,      91
      90,      91,      98,      98,      98,      94,      79,      88
      94,      91,      98,     102,     100,      92,      93,      92
      91,      88,      86,      92,      92,      93,      86,      96
     100,      91,      86,      87,      96,     100,      86,      93
      94,      88,      77,      89,      97,     103,      82,      95
      86,      84,      83,      98,     100,      90,      92,     100
      93,      91,      72,      78,      87,      84,      77,      93
      89,      89,      95,      91,      90,      88,      94,     106
      96,     101,      90,      70,      84,      94,      90,      88
      90,      78,      91,      84,      89,      84,      77,      91
      92,     107,     104,      94,      90,      88,      84,      86
      94,      97,     101,      98,      97,      95,      96,      86
      79,      77,      73,      96,     107,      88,      88,      94
      87,      91,      93,      98,     105,      93,      84,      88
      92,      85,      95,      95,      95,      97,      88,      82
      86,      89,      74,      88,      86,      87,      82,      94
      95,      90,      99,      96,      89,      74,      89,      85
      91,      83,      91,      88,      78,      82,      97,      96
      94,     101,      89,      89,     101,     108,      98,      95
      84,      88,      91,      92,      95,      91,      82,      99
     107,      92,     104,      94,      91,      95,      82,      87
      96,      84,      78,      84,     100,     113,     102,      99
      94,     108,     103,      96,      94,      97,      97,      98
      94,      95,      83,      88,      89,     109,     118,     106
      99,     104,     100,     101,     110,     114,     120,     123
     128,     132,     136,     148,     157,     176,     202,     218
     254,     306,     346,     409,     477,     492,     511,     470
     425,     366,     304,     277,     242,     194,     176,     158
     138,     125,     140,     139,     116,     112,     122,     135
     143,     126,     145,     150,     163,     173,     172,     184
     217,     227,     248,     273,     294,     288,     291,     252
     201,     216,     175,     160,     154,     140,     143,     129
     100,     135,      94,      98,     107,     117,     102,     106
      89,     105,      97,      89,      98,      92,      87,      86
     101,      99,      94,      87,     105,      92,     104,      94
     104,      98,     108,     103,      96,     103,      87,      96
     105,      84,      90,     107,     102,      95,      96,      92
      95,     102,      94,      90,      94,      93,      93,     102
      98,      79,      78,      87,      93,      99,      98,      94
      95,      92,      90,      92,      97,      92,      90,      99
      94,      80,      83,      86,      94,     105,     114,     106
     100,      99,      95,      96,      94,      91,      82,      98
      92,      94,      91,      92,     106,     101,      85,     100
     106,     101,     101,      90,      94,      94,      92,      82
     100,      85,      80,      86,      85,     100,      78,      91
      85,     103,      99,     102,     100,      66,      78,      90
      95,      89,      83,      94,      95,     105,      85,      83
      84,      87,      99,      83,      94,     101,      90,      86
      84,      86,      88,     101,      95,      90,      93,      96
      91,      91,      99,      96,      84,      77,      87,      89
      89,      90,      90,      87,      92,      95,      97,      97
      96,     105,      98,      80,      84,      97,      94,      94
      97,      93,      88,      84,      87,      96,      87,      92
     105,     110,      83,      72,      69,      82,      86,      77
      93,      91,      92,      90,      99,      80,      85,      89
      96,      88,      88,     107,      95,      90,      91,      92
      96,      80,      75,      91,      87,      82,      88,     101
      86,      88,     109,     102,      93,     102,      78,      93
      96,     105,      96,      98,      88,      96,      97,      99
      99,      80,      98,      85,      90,      90,      74,      80
      82,      84,      87,      92,      96,      92,      91,      90
      81,      86,      88,      95,      97,      95,     100,     103
      93,      82,      76,      72,      72,      89,     105,      97
      91,      96,      97,     103,      98,      85,      88,      99
     104,      94,      91,      86,      75,      86,      97,      95
      88,     100,     101,      83,      90,     100,      86,      74
      93,      95,      92,     100,      91,      92,     103,     108
      91,      87,      79,      71,      87,      90,      96,      92
      93,      85,     107,      76,      85,      89,      98,      74
      93,      82,      94,      96,      94,     105,      87,      86
      84,      84,      87,      78,      96,      80,      89,      93
      89,      95,      75,      89,      78,      90,      91,      87
      80,      88,      86,      74,      82,      98,      89,      76
      67,      85,      88,      94,      93,      95,      99,      93
      95,      95,      96,      86,      84,      99,      97,      93
      88,      90,      85,      83,      83,      90,     106,      99
      81,      77,      88,      99,      98,      98,      94,      74
      75,      87,      90,      77,      79,      95,      90,      92
      95,      96,      95,      90,      93,      87,      98,      89
      96,      84,      88,      99,      88,      89,      79,      86
      96,     102,     112,      86,      92,      83,     103,      85
      84,      82,      95,      98,      85,      73,      94,      77
      92,      94,      83,      88,      88,     107,     102,     123
      98,      85,      81,      94,     101,     103,      92,      90
     109,      80,      88,      93,      95,      82,     103,      97
      80,      81,      98,     100,      98,      92,      94,     102
      90,      93,      95,      95,     101,     101,     102,     107
      98,      97,      96,      84,      89,     101,      95,      89
      94,     100,      98,      99,      96,      85,      88,      91
      91,      99,     102,      93,      90,      86,      76,      87
      88,      77,      90,     101,     103,      87,      82,      86
      94,     103,      86,      76,      83,      83,      81,      98
      90,      85,      89,      79,      81,      81,      95,      95
      94,     105,     107,      87,      84,      89,      83,      77
     109,     113,     115,      88,      90,      82,      93,     102
     111,      76,     110,      85,      95,      99,      93,      86
      89,     100,      83,      82,      97,     124,     112,     112
      99,     101,     118,     131,     135,     138,     138,     157
     182,     171,     165,     169,     144,     126,     123,     124
     135,     121,     103,      98,     115,     120,     106,      95
      89,     101,     109,     107,     109,     100,     104,     108
     106,     111,     113,     119,     121,     118,     114,     119
     131,     134,     122,     116,     115,     126,     136,     121
     113,     113,     117,     106,     107,     103,      97,     102
     110,     109,     109,     115,     111,     101,     101,     111
     109,      98,     100,     112,     121,      80,      93,      85
     111,      97,     111,     104,     103,      92,     106,      76
      80,      90,      82,     112,     102,      96,     124,      94
      95,      95,      87,      91,      90,     102,      99,      90
      85,      87,     115,      91,     109,      96,      92,      92
      92,      97,      91,      94,      87,     102,     104,     104
     103,     103,      93,      99,     108,     101,      93,     103
      99,     100,     101,      99,      94,      94,      89,      89
      92,      89,      91,      92,      95,      99,      90,      88
     102,     107,      99,      94,      99,      98,      87,      82
      92,      97,      98,     103,     111,      97,      93,      90
      97,      86,      72,      86,      86,      87,      92,      95
     100,     102,      95,      92,     108,     109,     102,      96
      84,      82,      94,     107,      96,      92,      88,     104
     111,      97,      98,     102,     109,     101,      94,      95
     102,      91,      91,      96,     105,      85,      98,     100
      79,      80,     113,     105,      99,      98,     102,      80
      88,      93,      99,      90,      99,      99,      92,      81
      91,     100,      93,      96,      81,      82,      80,      73
      78,      92,     109,     104,      96,     104,     100,      92
      97,     100,      98,      90,      87,      99,     114,     106
     101,     105,      93,      83,      91,      98,      92,      92
      97,      84,      88,     103,      93,      97,      90,      82
      77,      83,     100,     107,     113,      95,     105,      94
      86,     100,     103,      88,      83,      89,     100,      93
      83,      84,      90,      86,      95,      83,      93,     102
     105,     100,     112,     103,     101,     106,     112,      87
      92,     106,     103,     123,     118,     101,     101,      99
     105,     100,     100,     112,     103,      88,     118,     100
     101,      96,     104,      99,      99,      98,      95,     103
      93,     102,      96,     104,      87,      87,      96,     103
     112,      91,     108,     112,      95,      90,      88,      90
     101,      92,     107,     105,     106,     106,     100,      96
     102,     106,      91,      90,     104,      99,      88,      89
     103,     104,      94,     104,     107,     107,     109,     104
     105,     112,     113,     103,      91,     103,     105,     112
     107,     105,      96,      89,      86,      88,     107,     110
      95,      88,      84,      85,      88,     106,     100,     105
     113,      97,     110,     104,     103,      89,      94,     108
     102,      96,      97,     102,      78,     111,     108,     103
      96,      89,      86,     102,     101,     100,     110,     100
      94,      84,     111,      93,      97,     103,     107,     116
      93,      92,     104,      97,      90,     103,      92,     100
      96,      99,     105,     100,     106,     101,      96,      90
      92,      92,      89,      93,      92,      92,      95,     101
      99,     106,     103,      91,      84,      85,     100,      99
     100,     106,     100,      99,     103,     103,     105,     110
     102,      93,     107,     109,      94,     104,     111,      98
      87,      87,      92,      85,      87,     100,     108,      92
      96,      82,      93,      97,     106,     127,     101,      96
     102,      92,      94,     112,     111,     101,     111,     104
      96,     105,     110,     102,      88,      84,     101,     105
     102,     114,     106,     109,     115,      91,      92,     113
      96,      98,     122,      99,     106,     114,     100,     106
     114,     106,     108,      91,      96,     110,     106,     103
     109,     105,     112,     103,     109,     104,     101,     100
      99,     112,     105,     101,     104,     110,     105,     109
     113,     110,     115,     101,      94,     103,     100,     103
     116,     119,     111,      96,      98,     100,     100,     103
     106,     103,     101,     110,     117,     113,     103,     107
     116,     122,     101,      97,     102,     111,     113,     110
     113,      91,      95,     120,     115,     106,      95,     109
      92,     105,     100,     120,     118,     113,      91,     106
      98,     110,     118,     108,     114,     115,      89,      99
      95,     105,     103,     112,     110,     114,      88,      94
     119,      83,     133,     103,     113,     119,     117,     120
     100,     136,     117,     131,     113,     105,     108,     127
     135,     122,     121,     130,     136,     141,     138,     133
     127,     149,     166,     182,     214,     217,     248,     270
     292,     316,     356,     376,     376,     362,     310,     274
     250,     224,     207,     177,     161,     176,     172,     148
     137,     133,     141,     129,     136,     148,     126,     120
     122,     123,     131,     147,     143,     123,     122,     133
     135,     137,     138,     140,     141,     148,     163,     165
     171,     193,     205,     220,     235,     238,     223,     238
     209,     181,     180,     164,     152,     135,     136,     134
     138,     138,     134,     116,     109,     101,     110,     127
     115,     131,     104,     120,     132,     109,     108,     118
     126,     109,     108,     121,     116,     103,     105,     140
     108,     108,     106,      90,     111,     105,     122,     125
      99,     110,     118,     135,     104,     124,     117,     114
     119,      90,      94,      93,     115,     105,      95,     102
     104,     104,     105,      88,     107,     115,     114,      98
     102,     110,     111,     119,     107,     112,     120,     107
     105,     100,     101,     105,      93,      99,     122,     123
     110,     113,     116,     111,     106,     109,     119,     124
     122,      97,     104,      98,      97,     101,     108,     124
     112,     107,     122,     104,     103,     120,     103,     112
      99,     116,     110,     115,     113,     108,      88,      87
     102,     105,     109,     104,      98,      96,     101,     100
      98,      98,     117,     109,      89,     106,     123,     106
     114,      94,     113,     104,     106,     109,     114,     100
     105,     110,     106,     104,     103,     108,      98,     115
     110,     115,      98,     116,     115,      95,     102,     128
     115,     102,     111,     113,     107,      97,      86,      99
     115,     113,     102,     112,     115,     111,     102,     110
     124,     106,      96,     108,     103,     117,     140,     125
     116,     117,     115,     117,     111,      93,      89,     112
     119,     109,     106,     111,     103,     100,     108,     108
     108,     115,     118,     112,     113,     106,     110,     111
     122,     110,     126,     112,     106,     108,     109,     121
     102,     110,     109,     110,     116,     135,     119,     118
     126,     105,     128,     107,      99,     108,     117,      89
     100,     122,     114,     102,     107,      86,     106,     112
      94,     103,     112,     129,     117,     111,     105,      92
      94,     103,     102,     107,     126,     118,     102,     105
     109,     101,      93,     111,     117,     107,      97,     115
     125,     117,     112,     103,     108,     111,     111,     110
     117,     113,     106,     111,     111,     116,     121,     119
     118,     113,      99,      98,     110,     111,     110,     113
     115,     111,     110,     105,     100,     101,     109,     112
     110,     101,     100,      92,      93,     103,     114,     112
     117,     108,     105,     109,      99,      95,      98,     101
     104,     102,     103,     116,     111,     104,     114,     120
     107,     119,     102,      95,      95,     111,     105,     106
      99,     105,     115,     112,     120,      89,     127,     114
     109,     123,     130,     106,     116,     123,     108,     131
     107,     113,     111,     109,     103,     104,     120,     113
     105,     114,     119,     121,     113,     113,     128,     124
     114,     126,     125,     115,     116,     102,     113,     116
     112,     101,     110,     128,     119,     107,     107,     105
     116,     113,     105,     107,     113,     120,     123,     112
     106,     113,     116,     119,     119,     120,     115,     111
     125,     119,     111,     109,      98,     104,     117,     117
     115,     107,     102,     101,     115,     124,     119,     121
     101,     112,     115,     118,     105,     122,     128,     127
     117,     105,     126,     122,     111,     135,     122,     113
     107,     118,     112,     113,     104,     103,     101,     124
     120,     132,     132,     125,     114,     132,     124,     112
     110,     113,      97,     110,     122,     118,     122,     131
     123,     118,     117,     107,     108,     106,     121,     108
     110,     103,     119,     117,     118,     106,     105,     102
     109,     113,     108,     113,     105,      98,     108,     115
     125,     113,     111,     123,     110,     106,     110,     118
     116,     111,     104,      98,     106,     115,     104,     106
     121,     111,     110,     113,     108,     124,     130,     119
     110,     115,     128,     122,     115,     110,     116,     122
     119,     115,     115,     116,     115,     113,     127,     124
     110,     112,     125,     128,     115,     107,     100,     105
     125,     127,     117,     125,     126,     115,     119,     116
     116,     106,     103,     115,     117,     114,     127,     117
     121,     112,     135,     134,     126,     146,     139,     121
     115,     101,     122,     121,     113,     121,     128,     126
     117,     115,     130,     132,     127,     107,     101,     111
     120,     132,     128,     122,     120,     127,     118,     120
     116,     117,     127,     122,     124,     133,     130,     122
     132,     128,     120,     118,     125,     138,     126,     118
     132,     129,     118,     131,     133,     124,     129,     137
     133,     117,     114,     124,     141,     137,     128,     134
     148,     141,     127,     131,     124,     113,     115,     128
     139,     128,     114,     103,     136,     153,     135,     142
     134,     146,     158,     150,     158,     170,     161,     171
     173,     183,     219,     221,     237,     234,     281,     315
     358,     392,     441,     452,     565,     565,     593,     643
     595,     553,     532,     441,     385,     334,     347,     332
     282,     243,     235,     259,     244,     209,     194,     179
     175,     181,     172,     155,     153,     159,     149,     149
     157,     156,     141,     153,     145,     143,     138,     137
     147,     162,     171,     163,     170,     169,     170,     187
     206,     221,     234,     251,     249,     275,     320,     321
     342,     360,     338,     337,     324,     295,     274,     257
     240,     238,     213,     197,     205,     175,     172,     168
     161,     155,     143,     147,     150,     141,     149,     123
     126,     137,     152,     126,     118,     147,     126,     131
     139,     117,     119,     119,     115,     126,     123,     112
     137,     131,     147,     136,     130,     105,     115,     123
     134,     109,     146,     135,     121,     129,     132,     121
     117,     114,     101,     121,     111,     117,     106,     117
     139,     116,     120,     116,     125,     132,     124,     132
     129,     116,     128,     116,     116,     116,     113,     126
     135,     132,     119,     123,     119,     112,     118,     131
     125,     113,     122,     130,     133,     127,     117,     119
     132,     136,     124,     116,     125,     132,     122,     131
     128,     107,     118,     117,     117,     126,     122,     117
     116,     120,     123,     131,     132,     130,     118,     130
     120,     123,     115,     134,     136,     114,     116,     104
     103,     132,     115,     130,     120,     126,     127,     123
     119,     117,     125,     119,     131,     125,     132,     120
     112,     116,     106,     114,     131,     129,      98,     131
     117,     146,     118,     124,     130,     126,     112,     127
     121,     117,     114,     121,     135,     121,     118,     122
     125,     119,     115,     125,     109,     119,     116,     114
     127,     126,     125,     130,     146,     136,     124,     122
     117,     129,     122,     115,     116,     111,      96,     105
     113,     123,     127,     113,     113,     123,     114,     117
     127,     114,     117,     128,     125,     113,      99,     115
     122,     122,     136,     114,     109,     125,     119,     119
     119,     122,     133,     135,     129,     135,     123,     122
     132,     122,     112,     120,     131,     111,     113,     119
     149,     132,     128,     120,     119,     124,     125,     103
     111,     147,     122,     134,     135,     104,     120,     140
     118,     121,     109,     139,     121,     111,     114,     133
     135,     124,     136,     115,     132,     111,     126,     126
     143,     130,     122,     110,     128,     135,     114,     114
     123,     118,     117,     127,     127,     118,     126,/
