SampleIdent,,/
Title1,Configuration=Conf.Stage for flat samples/holders, Owner=User-1, Creation date=11/4/2011 2:21:53 PM,/
Title2,Goniometer=Theta/Theta; Minimum step size 2Theta:0.0001; Minimum step size Omega:0.0001,/
DiffrType,0000000011114271,/
DiffrNumber,  0,/
Anode,Cu,/
LabdaAlpha1, 1.54060,/
LabdaAlpha2, 1.54443,/
RatioAlpha21, 0.50000,/
DivergenceSlit,Fixed, 0.22,/
ReceivingSlit, 0.10,/
MonochromatorUsed,NO,/
GeneratorVoltage,  40,/
TubeCurrent,  40,/
FileDateTime, 10/19/2016 9:56:03 AM,/
DataAngleRange,  20.0158, 136.9898,/
ScanStepSize,   0.013,/
ScanType,Continuous,/
ScanStepTime,  58.40,/
RawScan
    1207,    1263,    1204,    1211,    1213,    1237,    1214,    1247
    1211,    1239,    1223,    1190,    1167,    1238,    1193,    1141
    1118,    1194,    1202,    1195,    1183,    1190,    1213,    1154
    1194,    1209,    1177,    1168,    1147,    1197,    1154,    1159
    1159,    1212,    1170,    1180,    1168,    1144,    1142,    1129
    1136,    1144,    1165,    1154,    1176,    1206,    1145,    1109
    1116,    1109,    1113,    1122,    1138,    1154,    1159,    1141
    1133,    1159,    1123,    1110,    1160,    1131,    1065,    1050
    1091,    1154,    1135,    1105,    1074,    1096,    1125,    1160
    1122,    1115,    1105,    1080,    1067,    1076,    1104,    1082
    1086,    1092,    1091,    1078,    1046,    1061,    1062,    1077
    1068,    1052,    1060,    1079,     984,    1049,    1010,    1033
    1116,    1064,    1067,    1071,    1072,    1001,    1010,    1070
    1057,    1033,     992,    1055,    1072,    1088,    1027,    1010
    1065,    1025,    1028,     995,    1006,    1012,    1006,    1035
    1040,    1029,    1020,    1020,    1066,    1056,    1038,    1041
    1068,    1040,    1041,    1021,    1007,     999,    1030,    1012
    1023,    1024,    1041,     994,     971,    1015,    1026,    1006
    1003,    1012,     953,     945,     995,    1010,    1003,    1007
     977,     950,     958,     952,     978,     998,     993,     990
     978,     968,     998,     993,     957,     997,    1005,    1013
    1011,    1027,     984,     968,     918,     926,     965,     996
     978,     963,     992,    1011,     978,    1000,     998,    1018
    1016,    1118,    1101,    1046,    1056,    1010,     965,     963
     933,     933,     982,     915,     917,     900,     922,     963
     973,     927,     910,     911,     931,     944,     956,     965
     957,     911,     913,     936,     914,     923,     931,     918
     949,     903,     897,     890,     907,     877,     899,     898
     911,     930,     889,     899,     891,     860,     883,     877
     886,     892,     892,     876,     886,     869,     879,     874
     893,     907,     897,     873,     848,     850,     868,     870
     877,     862,     838,     824,     850,     874,     849,     863
     888,     877,     868,     869,     875,     880,     869,     869
     855,     836,     851,     890,     897,     917,     921,     861
     832,     850,     880,     864,     868,     858,     901,     836
     859,     836,     822,     818,     831,     835,     849,     861
     857,     855,     787,     793,     811,     865,     892,     795
     814,     857,     817,     832,     823,     824,     781,     799
     835,     828,     800,     825,     865,     841,     814,     828
     815,     772,     844,     802,     824,     795,     810,     794
     794,     778,     841,     806,     756,     787,     795,     811
     819,     802,     826,     803,     822,     781,     804,     793
     786,     802,     826,     796,     778,     818,     854,     861
     838,     821,     773,     801,     792,     771,     768,     771
     786,     785,     803,     797,     778,     781,     787,     786
     776,     771,     778,     765,     759,     774,     770,     744
     732,     740,     776,     760,     760,     761,     739,     749
     718,     750,     751,     769,     770,     790,     839,     699
     734,     764,     782,     776,     787,     771,     740,     739
     755,     776,     748,     748,     729,     728,     742,     699
     736,     762,     782,     783,     789,     754,     739,     746
     711,     751,     747,     765,     717,     774,     761,     752
     806,     813,     782,     862,     826,     855,     857,     831
     853,     837,     850,     833,     797,     774,     758,     773
     776,     729,     715,     752,     725,     768,     774,     744
     715,     778,     767,     743,     762,     765,     755,     746
     731,     705,     739,     738,     711,     710,     713,     698
     695,     734,     743,     730,     712,     729,     745,     710
     706,     693,     671,     704,     715,     728,     749,     734
     765,     761,     771,     771,     780,     802,     814,     788
     811,     792,     747,     745,     720,     738,     710,     746
     736,     734,     696,     746,     696,     689,     684,     701
     704,     752,     700,     721,     693,     766,     721,     690
     690,     707,     734,     688,     685,     693,     711,     715
     725,     753,     756,     705,     772,     742,     693,     678
     725,     711,     707,     709,     721,     744,     726,     771
     753,     721,     703,     698,     726,     717,     696,     685
     727,     752,     745,     733,     730,     732,     742,     726
     702,     715,     710,     718,     753,     762,     726,     761
     824,     824,     823,     884,     974,    1043,    1172,    1287
    1386,    1583,    1767,    1908,    1939,    1806,    1653,    1605
    1525,    1457,    1341,    1142,    1036,     942,     875,     895
     842,     864,     822,     807,     836,     808,     834,     811
     774,     758,     752,     779,     817,     811,     800,     757
     785,     797,     802,     810,     782,     837,     842,     767
     873,     814,     860,     852,     833,     777,     804,     812
     816,     827,     819,     842,     813,     888,     839,     849
     857,     921,     910,     909,     926,    1048,    1102,    1127
    1226,    1377,    1621,    1820,    2036,    2304,    2720,    3162
    3820,    4742,    5923,    7755,   10538,   14415,   19631,   24967
   27993,   26844,   22327,   17713,   15454,   15134,   14458,   11903
    8195,    5105,    3275,    2372,    1966,    1707,    1567,    1553
    1589,    1557,    1474,    1390,    1202,    1066,     981,     922
     925,     856,     857,     850,     846,     874,     859,     809
     814,     848,     841,     773,     786,     808,     745,     774
     785,     760,     721,     715,     757,     784,     763,     742
     749,     813,     721,     744,     770,     762,     742,     723
     716,     703,     728,     695,     702,     752,     718,     663
     710,     710,     697,     749,     713,     738,     690,     681
     744,     715,     721,     688,     680,     707,     708,     698
     689,     691,     714,     711,     673,     636,     684,     730
     668,     632,     650,     673,     689,     680,     663,     663
     684,     649,     628,     623,     663,     702,     700,     666
     683,     680,     650,     661,     673,     675,     670,     660
     631,     622,     653,     698,     681,     638,     663,     693
     689,     652,     631,     640,     624,     643,     691,     675
     648,     648,     649,     678,     668,     628,     623,     635
     634,     653,     637,     663,     674,     672,     618,     657
     674,     658,     681,     616,     648,     644,     638,     653
     670,     687,     667,     703,     682,     682,     681,     680
     671,     639,     669,     679,     654,     686,     674,     717
     743,     763,     845,     930,    1000,    1025,    1125,    1117
    1086,    1054,    1084,    1106,    1039,    1052,    1064,    1073
    1051,    1041,     992,    1061,    1095,    1106,    1116,    1155
    1093,    1052,    1101,    1053,    1049,    1057,    1076,    1051
    1052,    1016,    1048,    1089,    1089,    1063,    1074,    1087
    1067,    1065,    1060,    1062,    1103,    1109,    1089,    1088
    1102,    1150,    1176,    1177,    1174,    1158,    1187,    1217
    1242,    1263,    1258,    1265,    1263,    1299,    1362,    1394
    1429,    1489,    1513,    1579,    1688,    1802,    2050,    2150
    2365,    2740,    3265,    3841,    4595,    5597,    6793,    8266
    9991,   12166,   15474,   20512,   27961,   38762,   53763,   75282
  104313,  139410,  160794,  138880,   95160,   69139,   65336,   73385
   81233,   72044,   46466,   25617,   14729,    9849,    6966,    5530
    4427,    3757,    3229,    2895,    2628,    2253,    1990,    1979
    1845,    1643,    1615,    1533,    1514,    1374,    1344,    1380
    1311,    1263,    1200,    1198,    1167,    1119,    1112,    1117
    1094,    1103,    1083,    1062,    1028,    1017,    1027,     987
     957,     962,     972,     922,     901,     943,     920,     907
     875,     846,     858,     852,     887,     918,     871,     833
     834,     859,     894,     867,     823,     839,     848,     843
     841,     813,     800,     835,     818,     784,     777,     753
     822,     783,     787,     771,     749,     754,     784,     790
     787,     815,     788,     778,     747,     715,     763,     767
     783,     767,     711,     782,     760,     751,     741,     755
     696,     690,     718,     687,     718,     708,     721,     678
     752,     713,     732,     706,     700,     693,     678,     707
     725,     732,     676,     682,     754,     688,     700,     680
     679,     660,     681,     661,     632,     688,     688,     691
     690,     669,     658,     665,     679,     682,     675,     655
     632,     652,     662,     676,     662,     649,     645,     634
     665,     659,     627,     629,     659,     643,     646,     648
     613,     623,     659,     641,     619,     629,     625,     603
     581,     626,     650,     612,     619,     637,     634,     643
     639,     615,     603,     581,     574,     611,     620,     608
     588,     643,     651,     632,     601,     698,     668,     683
     736,     750,     736,     752,     673,     665,     627,     654
     637,     666,     623,     651,     628,     618,     606,     563
     576,     570,     603,     612,     590,     631,     550,     578
     615,     608,     591,     545,     572,     590,     625,     588
     612,     620,     648,     598,     630,     603,     565,     576
     531,     564,     570,     596,     591,     548,     525,     527
     574,     573,     585,     562,     556,     508,     498,     516
     517,     518,     509,     524,     548,     535,     540,     526
     511,     520,     517,     506,     516,     532,     522,     519
     528,     534,     558,     543,     520,     559,     542,     508
     521,     504,     513,     533,     517,     499,     528,     527
     529,     534,     549,     543,     548,     555,     538,     527
     534,     517,     515,     525,     492,     522,     503,     503
     471,     486,     518,     478,     517,     506,     472,     526
     484,     469,     508,     477,     482,     452,     489,     487
     508,     449,     480,     496,     482,     431,     480,     497
     476,     482,     463,     464,     485,     499,     473,     452
     422,     473,     473,     497,     479,     484,     434,     458
     471,     486,     528,     503,     472,     488,     439,     445
     459,     496,     470,     493,     493,     468,     461,     480
     482,     485,     490,     491,     507,     496,     454,     446
     471,     473,     454,     457,     483,     481,     476,     476
     462,     473,     468,     464,     473,     452,     457,     459
     439,     466,     472,     463,     469,     474,     449,     437
     445,     473,     449,     471,     480,     463,     404,     441
     471,     478,     437,     442,     468,     438,     425,     442
     428,     414,     470,     416,     429,     431,     447,     423
     447,     434,     399,     433,     449,     438,     420,     429
     425,     428,     439,     399,     408,     415,     429,     446
     386,     432,     406,     417,     402,     413,     422,     438
     408,     429,     463,     451,     417,     406,     404,     414
     424,     426,     416,     441,     435,     415,     432,     425
     429,     414,     420,     445,     443,     432,     419,     411
     414,     419,     420,     397,     399,     412,     431,     428
     414,     428,     427,     414,     417,     421,     411,     393
     393,     417,     416,     403,     400,     407,     411,     388
     399,     402,     437,     430,     415,     423,     407,     409
     396,     375,     389,     394,     399,     391,     391,     416
     385,     389,     427,     424,     398,     397,     403,     409
     408,     383,     373,     379,     391,     391,     402,     388
     403,     399,     375,     422,     406,     409,     401,     431
     427,     404,     421,     388,     398,     403,     401,     361
     395,     394,     396,     384,     372,     345,     372,     357
     380,     376,     392,     364,     386,     380,     381,     372
     359,     366,     395,     386,     389,     390,     373,     375
     388,     371,     368,     388,     393,     382,     390,     379
     390,     403,     396,     393,     388,     385,     395,     399
     394,     395,     392,     374,     384,     406,     390,     393
     381,     380,     381,     387,     369,     400,     385,     387
     362,     327,     352,     385,     384,     351,     377,     407
     425,     368,     396,     404,     393,     400,     382,     375
     396,     377,     380,     380,     390,     388,     406,     393
     454,     455,     406,     430,     405,     414,     404,     380
     368,     425,     412,     384,     356,     396,     370,     404
     395,     389,     386,     401,     390,     397,     373,     344
     379,     366,     370,     370,     355,     368,     345,     390
     389,     355,     362,     358,     371,     383,     365,     378
     390,     392,     379,     398,     380,     385,     398,     396
     402,     388,     408,     419,     408,     437,     450,     458
     472,     468,     505,     537,     568,     638,     717,     822
     922,    1089,    1357,    1732,    2184,    2694,    3319,    3790
    4142,    4193,    3877,    3466,    3118,    2911,    2716,    2640
    2634,    2480,    2234,    1870,    1508,    1237,     973,     806
     692,     566,     525,     554,     517,     483,     462,     465
     451,     450,     421,     435,     424,     419,     400,     399
     384,     375,     333,     341,     363,     351,     398,     389
     365,     376,     344,     352,     336,     389,     340,     353
     349,     345,     386,     346,     368,     329,     341,     352
     351,     345,     361,     348,     326,     366,     361,     349
     322,     340,     334,     317,     322,     346,     349,     360
     355,     335,     342,     345,     338,     346,     354,     325
     334,     364,     348,     334,     344,     360,     349,     325
     320,     325,     328,     336,     335,     320,     346,     346
     315,     317,     318,     347,     346,     318,     325,     326
     309,     329,     313,     334,     344,     343,     321,     355
     330,     322,     332,     307,     301,     324,     332,     310
     317,     309,     323,     313,     325,     299,     316,     327
     304,     333,     325,     338,     329,     321,     341,     354
     309,     319,     302,     298,     298,     310,     343,     304
     277,     295,     348,     308,     321,     331,     320,     337
     302,     337,     323,     320,     300,     294,     327,     305
     286,     304,     324,     301,     314,     297,     292,     294
     324,     317,     319,     318,     322,     308,     287,     286
     277,     291,     318,     329,     318,     303,     287,     299
     305,     303,     314,     306,     296,     304,     311,     319
     328,     326,     316,     295,     289,     296,     310,     327
     321,     308,     287,     281,     315,     313,     307,     293
     318,     300,     278,     283,     280,     289,     311,     324
     316,     337,     331,     302,     288,     280,     293,     276
     311,     297,     297,     290,     274,     320,     271,     314
     310,     296,     296,     319,     279,     311,     268,     277
     291,     330,     297,     318,     338,     318,     340,     400
     413,     401,     397,     402,     377,     402,     383,     380
     386,     353,     350,     338,     348,     354,     352,     346
     341,     336,     322,     311,     311,     312,     342,     325
     314,     336,     315,     307,     324,     344,     356,     358
     363,     336,     327,     347,     350,     337,     366,     358
     321,     321,     314,     324,     336,     327,     334,     356
     357,     343,     330,     326,     365,     366,     321,     328
     359,     361,     345,     363,     373,     375,     391,     412
     436,     411,     422,     444,     443,     421,     434,     483
     480,     484,     467,     433,     438,     454,     455,     438
     417,     407,     420,     411,     374,     384,     331,     400
     386,     343,     362,     376,     358,     372,     360,     378
     374,     382,     376,     371,     396,     364,     426,     411
     425,     450,     404,     443,     469,     499,     513,     584
     618,     662,     745,     721,     814,     903,     996,    1102
    1255,    1508,    1893,    2323,    2990,    3919,    5105,    6587
    8424,   10422,   11776,   12095,   10996,    8876,    7074,    6034
    5670,    5973,    6434,    6776,    6712,    5977,    4742,    3534
    2713,    2110,    1625,    1267,    1083,     960,     839,     756
     686,     630,     546,     529,     528,     503,     472,     447
     417,     415,     419,     409,     400,     363,     364,     369
     382,     371,     342,     329,     337,     314,     316,     336
     356,     375,     342,     332,     319,     333,     340,     332
     331,     298,     304,     337,     288,     294,     345,     305
     296,     299,     326,     296,     293,     310,     316,     284
     276,     269,     293,     331,     303,     315,     299,     292
     277,     291,     307,     312,     283,     311,     298,     278
     292,     325,     319,     297,     303,     308,     288,     277
     288,     291,     309,     306,     293,     272,     259,     269
     273,     264,     267,     295,     299,     280,     274,     282
     282,     266,     259,     275,     269,     240,     255,     284
     277,     283,     291,     277,     272,     292,     302,     268
     285,     279,     261,     285,     282,     272,     238,     229
     246,     273,     274,     251,     287,     280,     267,     274
     284,     264,     259,     264,     268,     282,     264,     249
     266,     305,     270,     251,     269,     244,     274,     266
     261,     272,     283,     221,     258,     241,     230,     238
     242,     274,     279,     289,     265,     274,     264,     294
     273,     271,     242,     271,     295,     256,     264,     269
     266,     246,     243,     269,     262,     270,     274,     268
     261,     276,     256,     255,     283,     280,     283,     274
     261,     280,     279,     251,     253,     267,     272,     295
     273,     259,     267,     253,     238,     236,     232,     232
     255,     260,     264,     276,     264,     249,     243,     252
     257,     267,     250,     237,     238,     257,     265,     224
     244,     255,     255,     264,     245,     258,     282,     264
     241,     246,     251,     276,     245,     264,     248,     262
     240,     233,     242,     234,     257,     262,     226,     226
     212,     243,     232,     268,     240,     226,     249,     240
     246,     236,     226,     280,     228,     230,     246,     256
     266,     248,     222,     222,     209,     234,     224,     258
     263,     239,     257,     280,     279,     280,     248,     244
     263,     261,     242,     236,     236,     240,     224,     216
     237,     254,     247,     226,     232,     242,     223,     246
     262,     240,     231,     216,     220,     223,     231,     223
     217,     233,     236,     222,     217,     212,     212,     230
     235,     244,     253,     249,     243,     236,     234,     224
     223,     241,     260,     241,     239,     259,     252,     245
     250,     227,     240,     215,     221,     249,     260,     230
     235,     242,     223,     230,     233,     242,     277,     285
     265,     266,     278,     244,     245,     295,     298,     290
     352,     406,     422,     477,     501,     579,     576,     623
     658,     661,     632,     531,     504,     513,     474,     468
     485,     510,     443,     462,     476,     409,     378,     338
     319,     294,     279,     293,     288,     279,     274,     260
     232,     236,     232,     265,     243,     221,     224,     226
     234,     244,     239,     219,     232,     256,     224,     219
     209,     221,     236,     225,     221,     212,     208,     205
     210,     229,     225,     222,     225,     213,     214,     220
     219,     211,     210,     207,     208,     214,     217,     215
     218,     225,     231,     223,     204,     215,     215,     203
     213,     227,     233,     229,     230,     227,     223,     218
     191,     198,     194,     184,     201,     222,     219,     216
     211,     235,     215,     198,     184,     191,     212,     212
     188,     183,     222,     197,     215,     229,     236,     208
     212,     196,     190,     204,     216,     214,     210,     206
     218,     209,     198,     209,     207,     194,     212,     231
     229,     198,     201,     208,     208,     214,     224,     217
     207,     224,     233,     223,     218,     209,     213,     221
     211,     205,     203,     203,     216,     195,     198,     204
     223,     231,     204,     203,     214,     225,     214,     199
     211,     223,     223,     217,     211,     211,     224,     205
     196,     199,     199,     197,     205,     213,     206,     185
     219,     218,     209,     216,     216,     206,     200,     214
     188,     189,     192,     189,     197,     194,     224,     217
     204,     210,     197,     202,     200,     204,     201,     200
     217,     199,     199,     177,     194,     196,     173,     198
     183,     184,     193,     185,     218,     207,     182,     199
     190,     196,     191,     190,     213,     205,     194,     202
     212,     201,     203,     208,     206,     202,     217,     203
     202,     203,     184,     196,     201,     184,     223,     202
     196,     195,     175,     192,     197,     184,     184,     199
     196,     195,     198,     181,     183,     194,     190,     190
     193,     190,     189,     192,     200,     197,     196,     205
     204,     206,     207,     202,     207,     201,     200,     213
     205,     198,     211,     221,     214,     208,     206,     218
     220,     229,     233,     271,     269,     264,     309,     313
     353,     385,     408,     402,     385,     369,     322,     313
     303,     307,     285,     308,     321,     341,     315,     288
     290,     273,     262,     228,     268,     229,     202,     197
     192,     209,     211,     201,     218,     204,     191,     203
     193,     216,     197,     196,     191,     178,     183,     205
     199,     217,     209,     180,     207,     198,     213,     219
     203,     198,     191,     199,     197,     201,     190,     186
     188,     183,     175,     192,     190,     175,     163,     171
     201,     204,     196,     197,     188,     173,     185,     206
     215,     201,     167,     172,     200,     197,     192,     191
     179,     199,     205,     192,     189,     197,     196,     198
     183,     183,     183,     169,     191,     213,     181,     181
     195,     180,     179,     203,     183,     167,     157,     188
     188,     196,     181,     189,     190,     200,     189,     170
     177,     199,     217,     173,     207,     185,     186,     200
     163,     180,     182,     187,     195,     168,     177,     183
     176,     188,     199,     190,     182,     208,     195,     192
     191,     185,     205,     187,     184,     193,     178,     175
     186,     178,     189,     178,     189,     192,     197,     195
     196,     193,     190,     194,     184,     185,     185,     214
     215,     203,     195,     199,     200,     198,     195,     193
     190,     189,     199,     197,     201,     209,     213,     208
     194,     199,     204,     220,     232,     240,     238,     235
     253,     229,     256,     275,     264,     318,     355,     360
     401,     457,     523,     610,     687,     838,     973,    1159
    1307,    1413,    1443,    1421,    1339,    1160,    1088,     963
     891,     879,     872,     902,     871,     890,     914,     872
     742,     647,     576,     551,     470,     373,     399,     327
     315,     293,     277,     284,     274,     224,     217,     202
     224,     229,     204,     202,     204,     218,     210,     206
     187,     210,     189,     203,     202,     207,     204,     186
     186,     178,     165,     176,     182,     209,     220,     196
     189,     178,     185,     189,     193,     178,     171,     195
     200,     175,     163,     186,     200,     198,     181,     172
     181,     188,     175,     166,     185,     195,     193,     176
     172,     202,     203,     175,     175,     185,     180,     177
     186,     193,     188,     180,     207,     210,     202,     181
     183,     187,     190,     181,     197,     193,     182,     175
     188,     185,     165,     180,     195,     193,     159,     162
     173,     201,     191,     188,     171,     202,     173,     187
     187,     194,     178,     183,     172,     164,     170,     183
     208,     191,     192,     182,     169,     188,     210,     184
     193,     175,     191,     201,     205,     222,     197,     210
     207,     197,     193,     183,     214,     211,     208,     223
     196,     211,     235,     226,     226,     210,     229,     255
     302,     346,     334,     352,     443,     546,     640,     826
    1084,    1367,    1630,    1803,    1869,    1747,    1513,    1267
    1007,     818,     722,     705,     751,     854,     957,    1028
    1058,     974,     879,     743,     587,     473,     397,     353
     306,     280,     262,     236,     225,     230,     233,     213
     223,     222,     194,     184,     227,     217,     197,     218
     225,     220,     236,     254,     231,     196,     217,     210
     206,     184,     165,     207,     183,     200,     186,     165
     184,     187,     214,     189,     181,     202,     167,     178
     195,     182,     185,     191,     188,     180,     158,     200
     192,     191,     172,     174,     173,     166,     183,     179
     182,     202,     192,     185,     195,     173,     171,     178
     186,     183,     169,     178,     195,     175,     180,     166
     156,     166,     173,     178,     180,     169,     164,     163
     156,     168,     178,     161,     159,     168,     168,     179
     172,     151,     175,     194,     170,     173,     179,     169
     171,     170,     178,     185,     177,     161,     159,     177
     169,     177,     189,     167,     171,     179,     173,     182
     167,     163,     168,     174,     169,     166,     145,     167
     176,     164,     156,     174,     186,     160,     185,     185
     161,     175,     185,     144,     168,     165,     159,     160
     158,     153,     188,     150,     163,     185,     186,     182
     175,     199,     169,     161,     174,     163,     165,     164
     163,     157,     187,     149,     145,     151,     163,     163
     164,     164,     160,     165,     164,     171,     175,     157
     162,     165,     163,     161,     162,     160,     157,     169
     167,     170,     162,     162,     163,     163,     164,     169
     187,     173,     152,     152,     170,     167,     151,     165
     155,     163,     183,     171,     156,     168,     175,     162
     154,     170,     165,     156,     163,     157,     172,     175
     162,     173,     157,     159,     178,     167,     171,     177
     173,     176,     175,     186,     167,     163,     160,     144
     177,     152,     159,     165,     164,     159,     163,     173
     137,     155,     160,     147,     148,     172,     201,     139
     153,     158,     153,     143,     161,     165,     172,     161
     154,     162,     167,     166,     154,     161,     149,     153
     148,     154,     159,     141,     149,     166,     164,     162
     165,     171,     153,     163,     163,     160,     149,     161
     148,     142,     158,     169,     151,     143,     154,     158
     152,     147,     159,     167,     158,     157,     153,     156
     165,     167,     163,     156,     170,     166,     154,     151
     153,     162,     163,     171,     157,     150,     147,     163
     160,     152,     167,     173,     171,     170,     157,     166
     148,     142,     168,     172,     165,     160,     150,     163
     188,     172,     168,     157,     159,     168,     156,     151
     167,     133,     169,     175,     124,     165,     158,     149
     137,     132,     170,     168,     190,     152,     162,     159
     153,     156,     168,     166,     173,     166,     178,     162
     147,     168,     151,     157,     175,     189,     185,     185
     178,     158,     164,     162,     174,     171,     170,     182
     192,     206,     197,     192,     193,     180,     195,     200
     171,     176,     187,     178,     182,     200,     188,     177
     192,     191,     189,     184,     178,     185,     181,     191
     202,     186,     180,     172,     163,     176,     179,     173
     171,     175,     173,     164,     151,     162,     158,     178
     186,     177,     179,     162,     188,     197,     206,     177
     175,     185,     182,     191,     176,     188,     185,     177
     176,     164,     185,     197,     186,     158,     162,     192
     172,     190,     176,     168,     172,     202,     180,     175
     180,     187,     190,     171,     174,     173,     177,     192
     177,     202,     185,     176,     191,     187,     190,     183
     189,     189,     184,     192,     189,     177,     161,     184
     196,     195,     205,     204,     194,     181,     193,     222
     203,     194,     201,     196,     179,     197,     213,     208
     204,     201,     203,     204,     203,     200,     201,     207
     193,     172,     178,     187,     179,     183,     193,     201
     212,     189,     184,     203,     195,     187,     212,     202
     199,     214,     217,     211,     219,     202,     188,     194
     206,     213,     227,     214,     225,     214,     213,     228
     219,     222,     225,     253,     220,     250,     264,     268
     239,     284,     303,     295,     317,     336,     295,     367
     410,     408,     361,     386,     408,     409,     427,     435
     438,     478,     534,     584,     644,     739,     839,     958
    1178,    1500,    1878,    2424,    3421,    4422,    6123,    8155
   10362,   12102,   12508,   11111,    8795,    6309,    4635,    3517
    2995,    2770,    2795,    3258,    3906,    4739,    5560,    6428
    6912,    6350,    5252,    4134,    3110,    2323,    1735,    1384
    1189,    1029,     904,     811,     771,     743,     717,     670
     625,     587,     508,     477,     450,     419,     396,     365
     343,     320,     310,     292,     290,     289,     268,     257
     249,     255,     239,     244,     244,     269,     262,     246
     235,     207,     248,     213,     212,     226,     226,     209
     218,     208,     201,     205,     206,     173,     200,     207
     198,     207,     205,     185,     191,     185,     207,     188
     191,     193,     201,     192,     200,     195,     190,     165
     158,     200,     187,     199,     185,     169,     196,     173
     187,     179,     181,     195,     181,     173,     181,     185
     194,     183,     191,     186,     164,     146,     169,     176
     182,     186,     180,     192,     189,     183,     182,     175
     201,     208,     183,     171,     157,     155,     163,     164
     180,     186,     173,     172,     171,     166,     164,     172
     183,     187,     178,     171,     183,     157,     179,     181
     157,     154,     167,     155,     150,     173,     166,     159
     170,     187,     178,     201,     180,     197,     178,     165
     173,     149,     145,     151,     170,     160,     158,     151
     143,     168,     187,     170,     171,     138,     162,     147
     154,     174,     189,     151,     153,     172,     169,     167
     144,     172,     162,     147,     146,     165,     150,     158
     151,     152,     174,     162,     181,     172,     145,     151
     158,     158,     153,     162,     151,     154,     164,     161
     155,     158,     163,     155,     161,     164,     164,     174
     176,     172,     162,     165,     161,     152,     152,     164
     156,     149,     161,     162,     148,     148,     151,     154
     167,     162,     159,     161,     160,     173,     164,     155
     172,     160,     153,     151,     153,     162,     146,     154
     151,     148,     148,     143,     146,     156,     156,     160
     162,     151,     152,     151,     150,     153,     153,     159
     146,     156,     136,     150,     178,     159,     162,     157
     135,     151,     156,     144,     161,     132,     137,     138
     149,     146,     167,     157,     147,     131,     138,     167
     146,     157,     154,     138,     166,     154,     157,     129
     145,     150,     152,     151,     155,     157,     152,     135
     137,     149,     145,     139,     148,     151,     144,     146
     142,     139,     147,     152,     149,     143,     131,     126
     140,     158,     162,     141,     132,     155,     162,     148
     144,     143,     150,     155,     150,     144,     134,     146
     156,     146,     142,     135,     144,     145,     150,     153
     135,     140,     149,     133,     146,     136,     142,     150
     140,     151,     159,     149,     138,     137,     133,     154
     156,     157,     149,     143,     139,     147,     150,     147
     152,     165,     161,     156,     156,     165,     153,     154
     148,     136,     161,     131,     129,     154,     143,     136
     145,     129,     151,     152,     161,     144,     146,     138
     145,     134,     150,     140,     156,     146,     156,     158
     138,     152,     143,     146,     147,     161,     148,     137
     146,     138,     142,     145,     149,     166,     168,     149
     124,     137,     156,     152,     142,     155,     161,     143
     134,     145,     157,     149,     141,     138,     136,     144
     144,     148,     158,     143,     142,     158,     151,     145
     143,     152,     146,     143,     150,     145,     147,     148
     142,     155,     154,     147,     143,     143,     155,     140
     154,     142,     151,     144,     157,     138,     146,     150
     132,     147,     155,     144,     134,     144,     143,     167
     150,     152,     124,     139,     142,     146,     163,     160
     172,     167,     159,     152,     146,     136,     139,     148
     161,     145,     151,     150,     146,     158,     143,     131
     150,     153,     165,     162,     175,     165,     145,     151
     166,     153,     148,     147,     136,     151,     162,     182
     166,     148,     163,     178,     160,     161,     183,     181
     190,     207,     205,     200,     194,     197,     208,     218
     224,     218,     218,     220,     187,     169,     186,     183
     182,     201,     201,     192,     192,     194,     185,     188
     187,     182,     176,     183,     187,     184,     183,     156
     157,     166,     164,     155,     172,     162,     172,     180
     156,     186,     177,     175,     175,     203,     204,     236
     266,     280,     289,     311,     337,     379,     409,     456
     453,     500,     556,     469,     498,     450,     470,     417
     368,     365,     362,     367,     353,     363,     378,     339
     330,     353,     353,     359,     342,     336,     320,     293
     285,     274,     240,     207,     210,     215,     188,     187
     180,     176,     156,     166,     165,     162,     163,     180
     184,     169,     154,     154,     140,     140,     166,     168
     157,     159,     157,     152,     150,     158,     162,     159
     158,     159,     166,     165,     158,     150,     157,     172
     164,     159,     150,     140,     152,     151,     144,     163
     172,     155,     143,     167,     176,     169,     169,     160
     179,     174,     166,     174,     174,     170,     188,     162
     179,     182,     174,     191,     213,     190,     207,     209
     185,     220,     220,     228,     222,     263,     241,     258
     258,     301,     308,     368,     333,     381,     437,     495
     518,     618,     698,     841,     990,    1145,    1366,    1519
    1746,    1896,    1964,    1926,    1779,    1684,    1520,    1273
    1122,    1010,     939,     893,     900,     914,     969,    1014
    1113,    1131,    1123,    1098,    1076,    1037,     951,     806
     734,     651,     544,     510,     470,     395,     362,     364
     334,     295,     258,     251,     273,     246,     217,     220
     203,     186,     203,     223,     202,     185,     185,     177
     168,     173,     176,     168,     171,     175,     171,     182
     169,     139,     160,     181,     154,     141,     152,     145
     150,     155,     150,     134,     138,     143,     131,     147
     153,     147,     139,     159,     164,     136,     158,     147
     152,     131,     137,     152,     177,     135,     134,     140
     126,     138,     123,     159,     168,     143,     145,     125
     119,     144,     138,     138,     137,     156,     148,     121
     127,     129,     123,     123,     145,     141,     148,     137
     142,     135,     159,     143,     136,     127,     140,     134
     124,     124,     122,     121,     135,     141,     142,     146
     146,     137,     132,     139,     157,     156,     149,     142
     128,     125,     135,     137,     128,     128,     140,     142
     140,     144,     136,     129,     122,     124,     139,     140
     134,     126,     129,     125,     125,     115,     119,     143
     136,     131,     140,     124,     119,     130,     141,     138
     150,     138,     134,     113,     133,     127,     115,     140
     147,     130,     137,     135,     142,     147,     127,     109
     139,     120,     135,     145,     143,     128,     118,     121
     117,     129,     117,     129,     152,     123,     132,      97
     110,     123,     138,     124,     142,     125,     142,     119
     143,     144,     131,     127,     122,     133,     118,     129
     143,     137,     119,     137,     145,     140,     125,     133
     146,     135,     118,     128,     138,     131,     128,     127
     127,     124,     122,     131,     122,     119,     125,     117
     121,     122,     120,     124,     122,     114,     124,     132
     123,     116,     134,     144,     145,     134,     137,     131
     114,     112,     125,     124,     115,     114,     119,     125
     135,     118,     135,     123,     111,     112,     108,     124
     116,     111,     114,     114,     127,     129,     118,     128
     112,     131,     132,     118,     135,     120,     128,     114
     149,     112,     126,     135,     128,     120,     119,     128
     124,     110,     121,     112,     112,     128,     127,     125
     122,     122,     126,     135,     123,     116,     126,     127
     122,     135,     117,     119,     129,     138,     124,     118
     120,     125,     125,     112,     116,     114,     107,     116
     113,     106,     122,     132,     127,     120,     120,     125
     118,     118,     125,     119,     111,     112,     127,     126
     114,     129,     144,     140,     129,     120,     124,     121
     141,     133,     136,     119,     113,     119,     127,     130
     128,     133,     113,     100,     109,     127,     119,     110
     127,     127,     138,     131,     142,     135,     128,     113
     112,     124,     115,     123,     109,     126,     121,     110
      92,     107,     109,     111,     140,     134,     123,     114
     128,     128,     124,     143,     125,     113,      99,     121
     113,     112,     121,     103,     135,     121,     126,     130
     124,     124,     115,     127,     136,     127,     105,     116
     139,     132,     108,     109,     111,     120,     118,     128
     125,     127,     132,     124,     113,     116,     118,     118
     112,     108,     117,     122,     117,     126,     129,     125
     132,     129,     127,     121,     113,     117,     117,     116
     108,     113,     136,     134,     120,     120,     125,     127
     120,     126,     105,     121,     127,     124,     134,     124
     109,     115,     107,     109,     127,     118,     116,     138
     126,     127,     138,     115,     111,      86,     122,     124
     109,     102,     119,     117,     130,     128,     115,     117
     137,     136,     132,     129,     116,     129,     121,     100
     117,     135,     114,     126,     117,     112,     131,     115
     115,     113,     115,     126,     120,     129,     117,     123
     118,     116,     118,     126,     112,     104,     117,     115
     112,     103,     104,     129,     125,     126,     129,     119
     119,     113,     120,     128,     118,     111,     121,     121
     115,     111,     105,     110,     113,     121,     128,     122
     120,     120,     128,     140,     141,     121,     110,     114
     122,     130,     124,     117,     114,     111,     112,     122
     106,     105,     119,     120,     111,     110,     121,     108
     121,      97,     123,     118,     121,     112,     111,     110
     129,     119,     117,     108,     133,     131,     130,     140
     146,     140,     137,     120,     137,     113,     130,     112
      95,     110,     114,     111,     111,     100,     117,     124
     111,     116,     128,     104,     127,     129,     120,     109
     111,     126,     120,     137,     126,     127,     136,     123
     116,     118,     122,     115,     125,     147,     131,     117
     118,     124,     118,     121,     123,     126,     133,     121
     112,     130,     145,     144,     146,     139,     123,     118
     133,     147,     154,     144,     139,     155,     152,     157
     169,     174,     174,     171,     181,     186,     189,     199
     211,     230,     253,     284,     284,     309,     371,     417
     453,     505,     520,     635,     757,     778,     780,     859
     831,     818,     806,     740,     674,     654,     573,     489
     486,     429,     435,     455,     413,     393,     487,     452
     446,     489,     592,     524,     530,     483,     469,     428
     382,     371,     355,     307,     270,     276,     214,     242
     208,     187,     160,     155,     164,     161,     141,     152
     158,     143,     156,     147,     145,     139,     136,     132
     129,     118,     117,     121,     155,     135,     116,     118
     125,     119,     131,     132,     113,     114,     118,     124
     114,     102,     128,     137,     124,     124,     121,     118
     114,     119,     123,     117,     121,     110,     106,     120
     129,     133,     134,     116,     114,     116,     113,     116
     114,     116,     119,     119,      94,     104,     113,     128
     121,     114,     109,     133,     110,     113,     127,     116
     121,     130,     125,     104,     119,     120,     118,     115
     112,     109,     101,     110,     114,     128,      95,     112
     108,     111,     115,     142,     116,      98,     116,     112
     117,     113,     115,     108,      98,     105,     121,     109
     100,     124,     128,     123,     132,     109,     111,     105
     104,     107,     110,     110,     109,     108,     104,     111
     114,     108,      98,     105,     122,     110,     103,     123
     121,     113,     104,     106,     119,     115,     109,     114
     114,     108,     103,     103,     110,     105,      96,     100
     101,     105,     102,      88,      94,     110,     106,      95
     107,     106,      91,     102,     101,     110,     121,     119
     105,     102,      89,     115,     108,      99,     120,     121
     103,      96,     102,      93,      97,     109,     121,     116
     100,     100,     117,     133,     116,     119,     106,     111
     127,     105,     105,     103,     128,     111,     114,     110
     124,     114,     109,     116,     100,     110,     115,     121
     115,     116,     105,     122,     125,     115,     102,      99
     114,     105,      93,      91,     109,     125,     110,     105
     103,     101,     113,     109,     101,     110,     121,     122
     112,     103,     103,     102,      99,     104,     105,     109
     114,     111,     111,     113,     117,     126,     119,     120
     133,     135,     136,     125,     117,     135,     148,     150
     152,     159,     158,     172,     183,     188,     180,     170
     165,     174,     182,     172,     146,     139,     147,     146
     129,     137,     142,     144,     153,     142,     136,     133
     130,     148,     142,     142,     133,     142,     131,     157
     125,     118,     132,     125,     122,     129,     106,     110
     121,     115,     118,     115,     117,     108,      97,      87
      95,     107,     112,     109,     115,     103,     111,     112
     108,      92,     112,     100,     102,     122,     120,     110
     112,      97,     100,     110,      99,     103,     118,     119
     118,     108,      92,     111,     130,     114,     115,     119
     116,     115,     106,      96,     100,      99,      89,      93
      98,     101,     108,     115,     114,     115,     112,     100
     100,      96,      99,     110,     103,     109,     115,     107
     108,     109,      95,     100,     108,      98,     105,     109
     110,      98,     103,     108,     110,     113,     106,      93
     105,     118,      99,      98,      98,     107,     118,     102
     113,     126,      83,      92,     104,     112,     107,     112
      91,     108,     117,     134,     123,      97,     102,      86
      85,      99,     106,      97,     105,     116,     111,      98
     103,     108,     104,     113,     118,     111,     113,     110
      99,     113,     130,     117,      94,     103,      92,     105
     107,      98,      97,     114,     116,     102,     112,     113
      95,      90,     101,      96,     101,     108,     106,     114
     115,     111,     105,     103,     113,     105,     105,     115
     110,     108,     121,     132,     124,     119,     120,     109
     110,     121,     125,     120,     123,     126,     128,     135
     159,     163,     169,     172,     183,     213,     227,     216
     215,     210,     193,     176,     159,     141,     142,     148
     139,     144,     123,     118,     124,     139,     135,     124
     146,     145,     171,     157,     162,     160,     147,     157
     133,     125,     131,     127,     137,     111,     129,     142
     105,     113,     120,     131,     109,     122,     121,     115
     109,     105,     102,      91,     101,     109,     115,      95
     110,     125,      98,     100,     106,     113,     110,     108
     108,      93,     110,     113,     115,     105,     103,     119
     109,     105,     100,     106,     114,     112,     108,      99
      96,      94,     104,     113,     117,     114,     104,     102
     105,     104,      97,      96,     106,     111,     117,     122
     108,     100,     107,     106,      96,      93,      99,     112
     119,     108,     111,     112,     119,     114,     100,     100
      96,      93,     107,     113,     101,     100,     104,      90
      99,     109,     102,      94,     119,      94,     110,     125
     122,      97,     117,     100,     107,     107,     101,     104
     119,     118,     102,     111,     107,      98,     100,      79
      96,     103,      96,     107,      97,      96,     100,      96
      91,      99,     107,     115,     105,     107,     113,     103
     105,     111,     100,     109,     106,     109,     109,     109
     104,      98,     101,     102,     110,     109,     111,     117
     118,     116,     107,      99,      96,      96,     102,     109
     102,     102,     119,     116,     107,     106,     103,     102
      87,      90,     115,     126,     116,     113,     119,     106
     104,     100,      96,     108,     102,      91,     105,     109
     106,     101,     113,     116,     107,      97,      92,      94
      95,     107,     105,     110,     103,     115,     100,     104
      99,      84,     100,     100,     112,     100,      96,     123
     108,      98,     119,     100,     119,     107,     130,      92
     103,     106,     101,     106,     110,     115,     103,     108
     104,     112,     110,     114,     112,     106,     103,     104
      99,     107,     115,      93,     109,     120,     100,     103
     114,     113,     108,     114,     102,      98,     108,     119
     101,     120,     120,     102,     102,     107,     113,     109
     100,     120,     116,     108,     118,     121,     123,     119
     107,     112,     116,      96,     104,     112,      99,     111
     118,     109,     111,     130,     127,     111,     119,     119
     108,     106,     110,     124,     132,     129,     145,     116
     120,     133,     146,     158,     159,     169,     189,     199
     202,     235,     258,     283,     329,     348,     369,     341
     363,     346,     337,     313,     313,     285,     282,     229
     211,     207,     190,     182,     165,     180,     176,     158
     181,     178,     194,     185,     219,     222,     258,     208
     228,     236,     208,     204,     196,     179,     185,     174
     157,     141,     133,     139,     138,     132,     121,     131
     130,     133,     134,     130,     125,     119,     118,     107
     102,     109,     108,     112,     116,     122,     122,     119
      94,      93,     110,     112,     115,     121,     120,     120
     120,     108,     109,      93,      91,     110,     110,     110
     122,     122,     113,     118,     122,     101,      96,      98
     109,     109,     112,     117,     111,     110,      97,     108
     105,     130,     116,     111,     116,     108,     125,     110
      98,      99,     118,     115,      99,     125,      99,     111
     126,     104,     119,     101,     114,     105,     107,      95
      93,     110,     109,     115,     108,     105,     109,     109
      97,     107,     119,     122,     114,     108,      99,     100
     129,     121,     114,     108,     114,     109,     114,     101
     116,     122,     120,     116,     119,     106,     105,     109
     105,     100,      92,      95,      91,      99,     111,     108
      98,     107,     103,     106,     115,     109,     112,     110
      99,     104,     109,     103,     103,      96,      94,      99
     106,     116,     106,     107,     117,     109,     113,     115
     113,     111,     104,     108,     111,     113,      91,     101
      89,     102,     105,      94,     107,     107,      97,      89
     107,     107,     100,     111,      99,     113,     115,     134
     129,     102,     100,     106,     112,      94,     102,     115
     114,      95,     102,      96,      93,     121,     110,     108
      89,     115,      98,     111,     104,      95,     116,     120
     108,     109,     105,     107,      99,     104,     115,     112
      94,      96,     123,     111,     119,     111,      99,      91
     103,     112,     123,     107,     100,     107,      99,      90
     110,     109,      90,      95,      90,      98,     115,     101
     103,     107,     101,      91,      95,     102,     109,     104
      92,     104,     114,     104,      93,     108,     102,      95
      96,      87,      81,      95,     103,     111,     112,     115
     103,      95,      95,     105,     108,     116,     104,     123
     115,     103,     103,     114,     113,     112,     106,     117
     111,     113,     109,     101,      84,     113,     124,     116
     122,     112,     119,     103,     104,     102,     108,      82
     126,     128,     111,     120,     111,      92,     106,      95
     100,     119,     117,     102,      97,     106,     117,     108
     126,     110,     114,     109,     108,      91,     110,     119
     108,     102,     119,     110,     106,     101,      99,      99
     101,     107,     113,     103,     106,     112,     113,     105
     111,     110,     106,     101,     100,     110,     106,     112
     112,     115,     119,     108,     109,     115,     113,     101
      94,     106,     114,     112,     113,     111,     122,     107
     104,     119,     108,     110,     118,     116,     105,     112
     100,     102,     108,      98,      97,     108,     101,     105
      99,     103,     119,     115,     111,     106,      99,     117
     119,     108,     109,     121,     122,     133,     106,     108
     107,     117,      99,     101,     106,      96,     108,     110
     119,     116,     116,     110,     103,     119,     118,     125
     128,     114,     101,     103,     120,     106,     120,     123
     117,     123,     102,     111,     107,     103,      96,     106
     110,     114,     115,     117,     114,     114,     109,     122
     122,     117,     115,     119,     114,     118,     112,     102
     105,     115,     111,     122,     124,     120,     119,     117
     124,     118,     116,     115,     112,     119,     137,     129
     103,     107,     115,     119,     128,     122,     119,     134
     130,     133,     132,     132,     132,     155,     159,     153
     151,     168,     171,     168,     177,     180,     217,     215
     218,     238,     237,     315,     326,     378,     369,     383
     386,     460,     415,     410,     392,     366,     374,     313
     334,     292,     246,     243,     240,     266,     226,     214
     230,     232,     259,     249,     260,     322,     336,     334
     363,     379,     369,     399,     430,     424,     418,     406
     394,     363,     350,     339,     317,     263,     266,     244
     236,     214,     190,     206,     210,     175,     170,     201
     198,     197,     190,     184,     188,     206,     207,     198
     210,     204,     182,     176,     180,     194,     190,     183
     187,     170,     162,     159,     143,     125,     135,     152
     136,     137,     134,     132,     129,     138,     137,     126
     126,     127,     116,     108,     112,     117,     112,     119
     128,     100,     115,     117,     120,     108,     133,     114
     113,     130,     114,     128,     116,     115,     126,     113
     102,     113,      94,     111,     131,     125,     105,     128
     125,     102,     114,     112,     105,     123,     120,     102
     116,     107,     110,     127,     107,     117,     100,     109
     115,     133,     109,     111,     107,     119,     130,     110
     119,     122,     126,     124,     115,      91,     109,     109
     101,     108,     110,     109,     115,     122,     108,     106
     119,     123,     118,     105,     103,     121,     112,     106
     118,     122,     118,     105,     110,     116,     106,     105
     111,     111,     116,     111,     103,     111,     112,     126
     121,     118,     117,     112,     112,     107,     108,     109
     124,     117,     118,     117,     109,     139,     110,     113
     121,     103,     139,     124,     122,     129,     126,     106
     124,     114,     101,      96,     103,     130,     114,      93
     114,     118,      97,     109,     114,      94,      99,     123
     123,     137,     110,     124,     130,     118,     124,     122
     113,     111,     100,     105,     114,     137,     112,     114
     109,     105,     117,     114,     126,     114,     102,     101
     112,     118,     114,     125,     124,     107,      92,     100
     116,     131,     121,     107,     111,     125,     127,     115
     107,     112,     120,     123,     120,     119,     121,     119
     113,     108,     103,     103,     110,     110,     107,     117
     113,     108,     116,     114,     113,     114,     109,      99
      90,      88,     111,     119,     120,     120,     115,     132
     112,     117,     118,     111,     102,      99,     113,     118
     107,     108,     121,     107,     121,     116,     140,     106
     122,     104,     131,     113,     102,     114,     120,     107
     110,     112,     120,     120,     120,     111,     104,     124
     121,     103,     116,     116,     117,     132,     118,     117
     124,     120,     114,     111,     104,      92,     103,     115
     116,     101,     124,     135,     128,     103,     112,     122
     135,     132,     127,     118,     118,     121,     112,     124
     122,     120,     112,     111,     127,     125,     123,     116
     111,     111,     106,     103,     109,     121,     119,     116
     118,     118,     100,     102,     137,     123,     109,     118
     123,     120,     126,     129,     122,     112,     121,     107
     120,     138,     132,     125,     116,     120,     119,     100
     109,     106,     116,     110,     114,     127,     118,     114
     106,     113,     109,     122,     113,     133,     113,     125
     126,     109,     106,     131,     131,     118,     129,     102
     136,     115,     122,     113,     129,     125,     118,     106
     121,      98,     126,     140,     126,     135,     130,     117
     113,     127,     108,     116,     115,     131,     139,     131
     124,     111,     114,     105,     102,     119,     126,     110
     108,     107,     122,     109,     114,     121,     117,     116
     113,     113,     112,     115,     120,     119,     119,     122
     128,     129,     115,     117,     124,     118,     119,     123
     119,     123,     120,     110,     114,     119,     128,     129
     116,     128,     128,     131,     126,     131,     131,     131
     122,     113,     138,     141,     147,     142,     116,     122
     143,     147,     156,     164,     154,     169,     166,     171
     174,     204,     199,     207,     195,     218,     232,     219
     220,     220,     237,     214,     205,     210,     207,     181
     207,     187,     183,     178,     178,     142,     153,     173
     151,     147,     145,     166,     163,     168,     172,     157
     161,     176,     184,     184,     187,     185,     164,     174
     182,     170,     173,     174,     173,     163,     149,     147
     159,     157,     150,     146,     140,     144,     141,     139
     142,     151,     153,     153,     151,     136,     140,     160
     169,     163,     163,     165,     160,     176,     185,     178
     184,     183,     190,     181,     196,     190,     164,     159
     151,     161,     143,     152,     160,     179,     175,     160
     170,     154,     138,     150,     155,     161,     152,     144
     144,     144,     161,     153,     171,     160,     162,     162
     169,     161,     172,     177,     170,     146,     150,     144
     177,     165,     175,     142,     136,     141,     158,     149
     154,     167,     167,     144,     155,     154,     151,     142
     152,     162,     162,     169,     170,     181,     183,     166
     160,     150,     145,     160,     159,     148,     168,     178
     168,     173,     188,     174,     170,     181,     177,     178
     200,     197,     185,     202,     216,     224,     234,     246
     250,     254,     272,     279,     284,     308,     345,     379
     405,     427,     474,     560,     620,     701,     787,     838
     941,    1061,    1218,    1299,    1342,    1382,    1481,    1472
    1377,    1313,    1171,    1097,     931,     877,     764,     651
     640,     569,     526,     535,     479,     466,     435,     414
     453,     424,     400,     440,     503,     496,     529,     623
     660,     688,     757,     739,     855,     837,     863,     792
     759,     703,     622,     601,     542,     473,     400,     392
     327,     332,     323,     295,     252,     257,     216,     235
     219,     227,     215,     199,     208,     197,     176,     169
     160,     178,     174,     161,     168,     161,     159,     172
     172,     150,     155,     159,     152,     158,     157,     153
     154,     141,     147,     168,     149,     140,     142,     132
     131,     138,     155,     162,     168,     159,     143,     143
     140,     136,     138,     136,     126,     124,     146,     156
     161,     155,     131,     139,     125,     110,     116,     117
     142,     137,     135,     123,     131,     152,     129,     146
     122,     155,     133,     126,     125,     146,     144,     135
     129,     133,     144,     127,     143,     130,     122,     123
     121,     128,     146,     112,     120,     134,     120,     141
     108,     135,     124,     125,     150,     129,     132,     136
     111,     125,     138,     134,     138,     136,     122,     132
     124,     121,     124,     136,     129,     119,     126,     131
     126,     121,     120,     114,     106,     125,     127,     123
     118,     128,     132,     125,     121,     119,     124,     128
     127,     138,     131,     113,     122,     133,     132,     130
     122,     119,     128,     129,     118,     111,     110,     116
     122,     126,     128,     131,     119,     112,     126,     137
     141,     140,     115,     120,     119,     116,     138,     132
     107,     104,     116,     134,     137,     134,     128,     126
     119,     129,     156,     147,     120,     115,     123,     117
     127,     129,     136,     113,     139,     113,     125,     129
     108,     117,     104,     111,     157,     131,     123,     118
     125,     119,     132,     151,     135,     150,     120,     132
     123,     137,     129,     130,     129,     126,     128,     122
     133,     125,     124,     143,     119,     126,     132,     134
     125,     130,     148,     136,     141,     147,     142,     131
     119,     117,     122,     122,     135,     144,     135,     133
     130,     121,     112,     110,     124,     123,     112,     124
     128,     129,     138,     140,     126,     120,     117,     124
     129,     126,     125,     117,     128,     134,     136,     101
     121,     127,     134,     121,     140,     137,     113,     122
     129,     120,     116,     124,     115,     123,     112,     136
     108,     133,     132,     117,     122,     116,     119,     118
      94,     116,     131,     115,     148,     123,     115,     113
     119,     128,     140,     128,     125,     133,     123,     106
     114,     114,     135,     128,     133,     135,     137,     123
     103,     121,     131,     139,     156,     145,     122,     133
     121,     128,     125,     115,     109,     116,     129,     133
     129,     130,     133,     140,     128,     117,     127,     128
     115,     119,     130,     123,     123,     145,     153,     135
     123,     128,     130,     122,     123,     135,     132,     119
     125,     122,     120,     128,     136,     117,     128,     141
     115,     119,     114,     118,     126,     126,     124,     142
     138,     125,     114,     121,     131,     122,     128,     120
     123,     132,     134,     121,     113,     122,     133,     141
     116,      98,     130,     108,     138,     136,     140,     130
     151,     132,     115,     139,     135,     147,     138,     126
     147,     120,     124,     143,     140,     165,     146,     136
     140,     133,     141,     151,     157,     140,     127,     142
     151,     124,     127,     146,     143,     161,     158,     138
     131,     134,     131,     143,     147,     126,     137,     153
     136,     139,     134,     134,     139,     126,     129,     131
     126,     129,     139,     137,     136,     163,     161,     149
     158,     142,     140,     154,     152,     143,     140,     129
     130,     144,     146,     130,     130,     136,     133,     148
     146,     138,     149,     154,     128,     137,     131,     144
     131,     144,     159,     137,     124,     127,     128,     136
     125,     133,     121,     125,     123,     131,     139,     113
     147,     114,     129,     121,     124,     148,     119,     116
     164,     129,     142,     124,     136,     125,     139,     155
     146,     144,     131,     124,     144,     132,     118,     128
     132,     130,     106,     117,     128,     134,     119,     128
     145,     134,     125,     132,     127,     130,     146,     146
     141,     137,     134,     138,     138,     126,     125,     123
     129,     133,     131,     127,     123,     133,     136,     118
     113,     133,     138,     128,     124,     132,     140,     127
     119,     137,     135,     129,     122,     126,     137,     143
     140,     111,     122,     134,     130,     117,     126,     121
     122,     129,     126,     126,     121,     137,     124,     141
     159,     141,     129,     154,     130,     126,     126,     107
     146,     145,     132,     141,     130,     125,     135,     146
     143,     133,     138,     152,     133,     128,     128,     139
     145,     148,     128,     152,     123,     135,     125,     138
     136,     142,     152,     132,     148,     144,     146,     153
     151,     156,     151,     142,     138,     138,     134,     152
     148,     143,     145,     133,     136,     148,     148,     148
     135,     141,     146,     160,     171,     145,     138,     143
     142,     147,     156,     161,     148,     141,     152,     165
     173,     172,     166,     164,     159,     173,     173,     170
     192,     196,     180,     184,     192,     200,     224,     219
     234,     210,     227,     249,     275,     271,     312,     342
     368,     444,     460,     475,     479,     526,     572,     613
     634,     679,     666,     706,     628,     666,     668,     591
     548,     553,     519,     450,     454,     406,     359,     376
     346,     330,     320,     306,     304,     301,     290,     269
     291,     295,     287,     318,     304,     317,     328,     303
     330,     334,     345,     396,     412,     405,     378,     408
     426,     408,     412,     397,     396,     350,     343,     341
     316,     290,     258,     255,     267,     253,     243,     235
     230,     241,     221,     204,     200,     190,     196,     186
     173,     169,     162,     165,     160,     147,     152,     163
     150,     161,     164,     160,     143,     141,     145,     139
     143,     155,     130,     149,     131,     138,     133,     121
     141,     136,     145,     163,     137,     130,     133,     146
     147,     138,     137,     141,     150,     128,     164,     145
     126,     122,     138,     161,     133,     139,     160,     150
     144,     125,     133,     137,     138,     152,     153,     145
     145,     126,     129,     144,     145,     137,     142,     156
     149,     144,     128,     133,     131,     155,     147,     146
     162,     147,     133,     145,     154,     141,     127,     129
     124,     120,     150,     132,     131,     143,     154,     146
     128,     120,     147,     144,     144,     136,     128,     142
     154,     147,     153,     158,     143,     140,     153,     170
     163,     153,     144,     139,     136,     130,     126,     124
     119,     132,     141,     133,     137,     113,     109,     136
     142,     135,     128,     130,     139,     142,     128,     157
     142,     117,     116,     132,     132,     136,     129,     141
     142,     145,     128,     136,     141,     133,     133,     148
     129,     149,     144,     126,     115,     144,     140,     138
     123,     132,     126,     152,     147,     138,     130,     130
     141,     123,     136,     134,     130,     143,     120,     141
     123,     148,     156,     136,     136,     140,     140,     135
     129,     114,     140,     138,     134,     120,     132,     139
     134,     131,     125,     138,     136,     139,     135,     136
     133,     132,     143,     142,     148,     143,     126,     127
     138,     140,     143,     146,     142,     141,     129,     126
     138,     150,     140,     133,     143,     128,     140,     139
     135,     129,     118,     130,     124,     127,     120,     133
     150,     141,     132,     128,     148,     128,     123,     110
     143,     150,     140,     141,     136,     159,     136,     128
     145,     139,     133,     146,     132,     130,     126,     143
     164,     155,     136,     150,     129,     147,     134,     142
     133,     139,     160,     153,     142,     151,     141,     144
     149,     136,     121,     125,     157,     149,     155,     155
     153,     139,     136,     140,     162,     154,     156,     166
     163,     148,     162,     152,     154,     150,     157,     166
     164,     175,     169,     162,     154,     154,     162,     165
     161,     155,     170,     180,     162,     157,     164,     157
     148,     144,     140,     148,     158,     151,     143,     142
     161,     144,     141,     157,     153,     153,     149,     159
     145,     149,     161,     157,     156,     142,     149,     164
     148,     135,     147,     156,     157,     165,     134,     155
     152,     167,     153,     142,     168,     164,     159,     128
     145,     133,     153,     121,     164,     131,     137,     144
     150,     136,     163,     160,     152,     147,     134,     139
     144,     154,     129,     124,     146,     149,     140,     125
     146,     159,     132,     146,     153,     136,     159,     148
     157,     147,     142,     128,     135,     126,     122,     128
     132,     138,     137,     138,     145,     149,     139,     146
     138,     139,     126,     119,     122,     132,     142,     137
     137,     147,     152,     142,     139,     143,     142,     145
     144,     136,     130,     127,     126,     133,     143,     133
     140,     161,     154,     135,     145,     141,     128,     137
     137,     138,     154,     149,     161,     137,     146,     141
     125,     133,     138,     160,     139,     146,     133,     159
     151,     151,     139,     151,     133,     140,     146,     135
     154,     127,     129,     142,     133,     133,     139,     123
     135,     165,     158,     129,     149,     144,     139,     139
     140,     137,     141,     139,     122,     127,     140,     143
     133,     162,     150,     144,     147,     138,     128,     138
     167,     147,     147,     144,     135,     152,     151,     140
     144,     149,     153,     144,     137,     141,     140,     136
     152,     150,     146,     146,     146,     151,     157,     160
     148,     143,     138,     138,     152,     146,     150,     164
     155,     158,     161,     156,     151,     140,     154,     159
     142,     165,     179,     153,     158,     173,     170,     170
     178,     166,     159,     153,     181,     180,     179,     158
     176,     179,     177,     170,     173,     155,     164,     157
     146,     167,     145,     138,     165,     166,     149,     179
     159,     142,     154,     140,     161,     135,     149,     153
     163,     132,     161,     154,     150,     142,     141,     132
     150,     162,     161,     147,     179,     178,     190,     177
     170,     155,     158,     165,     160,     161,     149,     163
     157,     158,     161,     143,     146,     150,     145,     142
     140,     146,     145,     143,     146,     134,     147,     155
     152,     150,     146,     153,     154,     150,     158,     155
     144,     149,     157,     162,     155,     133,     135,     141
     133,     146,     144,     134,     141,     138,     152,     142
     150,     150,     160,     133,     138,     137,     138,     144
     144,     131,     149,     153,     115,     136,     142,     160
     156,     157,     142,     130,     154,     156,     167,     139
     152,     147,     157,     162,     154,     148,     156,     172
     160,     163,     162,     135,     147,     169,     159,     144
     140,     144,     150,     153,     153,     139,     144,     176
     162,     158,     145,     156,     143,     158,     160,     151
     157,     169,     157,     157,     162,     161,     163,     149
     153,     164,     164,     157,     157,     155,     151,     145
     147,     157,     167,     161,     145,     152,     149,     144
     156,     157,     164,     181,     183,     164,     160,     173
     185,     184,     182,     187,     181,     189,     209,     208
     215,     215,     208,     224,     227,     218,     228,     268
     254,     266,     262,     274,     266,     291,     309,     316
     337,     295,     321,     333,     314,     311,     306,     297
     287,     323,     324,     292,     269,     263,     274,     278
     261,     264,     255,     242,     224,     215,     211,     267
     249,     222,     239,     223,     222,     207,     224,     220
     223,     219,     237,     215,     195,     236,     223,     201
     209,     223,     225,     242,     238,     232,     236,     226
     232,     228,     219,     216,     218,     232,     225,     211
     201,     215,     218,     205,     206,     227,     235,     215
     191,     173,     178,     186,     194,     188,     174,     191
     187,     161,     156,     164,     158,     153,     172,     170
     180,     176,     175,     188,     184,     158,     153,     174
     175,     151,     153,     149,     154,     178,     171,     157
     157,     160,     148,     154,     160,     147,     154,     146
     156,     173,     164,     178,     155,     131,     171,     166
     172,     158,     162,     150,     157,     164,     165,     126
     171,     166,     152,     144,     154,     136,     165,     153
     149,     163,     162,     135,     164,     135,     163,     155
     150,     137,     125,     150,     142,     153,     154,     152
     139,     167,     168,     162,     144,     135,     150,     164
     158,     154,     156,     153,     152,     161,     155,     146
     137,     140,     149,     161,     163,     163,     155,     156
     174,     171,     156,     159,     165,     164,     152,     143
     152,     146,     145,     157,     161,     148,     137,     161
     171,     147,     154,     165,     165,     158,     152,     155
     138,     152,     147,     170,     159,     167,     168,     178
     177,     182,     170,     185,     181,     185,     170,     185
     200,     188,     205,     178,     204,     209,     204,     219
     203,     212,     262,     233,     227,     256,     214,     209
     268,     246,     213,     231,     230,     232,     242,     233
     252,     223,     226,     229,     242,     229,     235,     214
     221,     210,     225,     198,     172,     194,     188,     190
     202,     189,     187,     197,     204,     187,     194,     195
     183,     192,     191,     194,     199,     182,     199,     206
     193,     201,     202,     182,     183,     196,     198,     196
     194,     193,     187,     188,     187,     196,     207,     202
     190,     199,     209,     185,     179,     189,     205,     211
     195,     177,     174,     174,     184,     169,     160,     181
     185,     175,     177,     193,     173,     160,     171,     182
     174,     156,     154,     147,     159,     168,     161,     147
     151,     151,     162,     153,     135,     145,     152,     158
     174,     144,     140,     174,     163,     144,     165,     157
     137,     120,     153,     152,     157,     157,     175,     148
     142,     160,     156,     154,     172,     144,     162,     144
     176,     156,     150,     150,     157,     149,     153,     162
     169,     174,     168,     160,     174,     164,     149,     153
     149,     161,     152,     143,     143,     149,     153,     158
     160,     154,     152,     157,     157,     146,     156,     173
     150,     145,     157,     141,     148,     168,     173,     164
     146,     159,     159,     155,     161,     167,     154,     156
     159,     151,     161,     156,     144,     153,     142,     130
     145,     144,     157,     163,     165,     153,     158,     148
     157,     161,     148,     178,     169,     134,     158,     161
     151,     154,     158,     146,     161,     160,     143,     148
     151,     137,     145,     161,     170,     147,     143,     157
     149,     174,     155,     159,     150,     145,     162,     158
     171,     145,     154,     157,     151,     153,     169,     153
     163,     144,     150,     136,     145,     148,     147,     162
     155,     150,     148,     144,     145,     160,     174,     163
     150,     146,     158,     169,     154,     143,     151,     157
     149,     155,     165,     164,     156,     148,     145,     151
     150,     137,     139,     140,     147,     151,     161,     160
     156,     160,     156,     138,     151,     162,     158,     169
     176,     149,     149,     150,     172,     170,     149,     167
     161,     144,     154,     171,     167,     159,     165,     154
     144,     145,     156,     177,     150,     171,     147,     134
     155,     127,     160,     173,     156,     178,     147,     161
     153,     156,     164,     155,     164,     152,     152,     156
     161,     172,     155,     156,     160,     151,     151,     169
     156,     148,     147,     153,     161,     155,     173,/
