SampleIdent,,/
Title1,Configuration=Conf.Stage for flat samples/holders, Owner=User-1, Creation date=11/4/2011 2:21:53 PM,/
Title2,Goniometer=Theta/Theta; Minimum step size 2Theta:0.0001; Minimum step size Omega:0.0001,/
DiffrType,0000000011114271,/
DiffrNumber,  0,/
Anode,Cu,/
LabdaAlpha1, 1.54060,/
LabdaAlpha2, 1.54443,/
RatioAlpha21, 0.50000,/
DivergenceSlit,Fixed, 0.22,/
ReceivingSlit, 0.10,/
MonochromatorUsed,NO,/
GeneratorVoltage,  40,/
TubeCurrent,  40,/
FileDateTime, 10/19/2016 10:53:39 AM,/
DataAngleRange,  20.0158, 136.9898,/
ScanStepSize,   0.013,/
ScanType,Continuous,/
ScanStepTime,  58.40,/
RawScan
     926,     939,     938,     896,     962,     916,     971,     967
     935,     982,     995,     922,     980,     943,     933,     905
     930,     943,     929,     962,     937,     912,     977,     904
     885,     958,     934,     921,     948,     971,     888,     861
     899,     885,     864,     903,     927,     912,     883,     892
     940,     933,     920,     891,     882,     908,     935,     926
     881,     909,     919,     893,     884,     860,     888,     909
     875,     873,     893,     848,     835,     876,     914,     923
     867,     865,     864,     864,     875,     892,     897,     896
     859,     870,     893,     892,     860,     889,     875,     866
     895,     884,     871,     876,     877,     865,     841,     888
     849,     857,     823,     855,     862,     792,     848,     880
     874,     840,     887,     849,     870,     864,     851,     882
     815,     880,     854,     871,     836,     845,     851,     874
     842,     851,     821,     809,     822,     849,     849,     852
     843,     817,     878,     844,     834,     837,     857,     823
     820,     828,     866,     811,     837,     857,     817,     814
     827,     843,     806,     806,     829,     851,     800,     784
     838,     843,     825,     820,     801,     781,     783,     788
     777,     803,     838,     821,     783,     787,     825,     831
     823,     797,     802,     792,     771,     814,     777,     768
     805,     814,     768,     770,     793,     792,     800,     827
     804,     756,     783,     759,     780,     785,     770,     773
     804,     764,     776,     810,     788,     814,     783,     812
     822,     782,     743,     740,     760,     733,     729,     822
     787,     834,     809,     770,     727,     780,     764,     780
     751,     757,     749,     811,     740,     743,     729,     811
     773,     795,     778,     720,     765,     759,     734,     759
     735,     754,     739,     715,     758,     775,     767,     792
     782,     738,     789,     775,     753,     739,     722,     745
     748,     721,     737,     749,     738,     739,     770,     764
     715,     711,     726,     759,     782,     771,     779,     755
     712,     727,     761,     755,     727,     725,     729,     723
     736,     775,     783,     705,     720,     742,     746,     717
     720,     725,     714,     737,     723,     695,     725,     765
     716,     707,     731,     718,     691,     680,     667,     701
     751,     700,     705,     715,     676,     713,     721,     667
     723,     744,     758,     699,     715,     716,     720,     700
     733,     718,     707,     678,     740,     754,     691,     736
     710,     703,     705,     695,     667,     688,     698,     683
     676,     680,     712,     721,     698,     702,     698,     675
     678,     722,     706,     709,     699,     695,     702,     687
     670,     680,     705,     730,     698,     720,     725,     715
     744,     765,     761,     774,     790,     792,     734,     694
     731,     742,     732,     714,     681,     681,     681,     668
     672,     662,     664,     688,     681,     689,     664,     666
     697,     663,     696,     705,     659,     639,     693,     724
     685,     687,     689,     697,     674,     681,     656,     659
     623,     607,     632,     661,     688,     651,     688,     661
     622,     694,     680,     686,     670,     657,     599,     636
     645,     629,     616,     686,     616,     664,     669,     640
     686,     599,     614,     667,     686,     654,     692,     675
     680,     682,     656,     651,     643,     667,     613,     661
     718,     698,     667,     682,     689,     714,     701,     676
     683,     638,     658,     664,     643,     662,     653,     650
     659,     613,     621,     644,     632,     628,     647,     652
     630,     614,     627,     639,     648,     659,     643,     625
     641,     637,     622,     631,     618,     610,     607,     608
     618,     630,     611,     582,     629,     626,     605,     617
     601,     584,     598,     608,     597,     595,     633,     661
     649,     630,     611,     592,     607,     610,     660,     631
     605,     666,     628,     604,     618,     644,     591,     670
     604,     624,     581,     608,     593,     604,     598,     581
     624,     621,     617,     584,     609,     588,     609,     595
     635,     597,     615,     575,     550,     575,     648,     596
     596,     612,     548,     573,     551,     576,     635,     628
     607,     616,     603,     614,     596,     571,     560,     582
     602,     593,     568,     588,     601,     608,     603,     587
     591,     599,     630,     618,     622,     629,     587,     578
     586,     589,     610,     637,     642,     625,     620,     650
     691,     696,     740,     808,     809,     856,     994,    1207
    1380,    1413,    1309,    1147,    1068,    1016,     980,     933
     870,     799,     721,     673,     628,     621,     663,     659
     639,     636,     585,     606,     640,     650,     646,     638
     625,     608,     595,     636,     627,     617,     652,     634
     645,     643,     628,     622,     608,     665,     599,     613
     689,     643,     649,     592,     626,     600,     659,     668
     649,     678,     673,     644,     687,     714,     696,     694
     715,     773,     782,     839,     858,     945,    1060,    1243
    1332,    1403,    1571,    1864,    2250,    2752,    3377,    4430
    6007,    8027,   10390,   13444,   15438,   13393,    9499,    7877
    9451,   12650,   12803,    8733,    4962,    3511,    3602,    4032
    3430,    2323,    1672,    1294,    1039,     918,     851,     799
     749,     700,     686,     647,     628,     627,     636,     656
     670,     654,     643,     648,     623,     602,     616,     614
     613,     636,     629,     614,     558,     580,     560,     565
     534,     582,     574,     580,     599,     601,     546,     619
     562,     558,     587,     548,     564,     566,     553,     599
     565,     585,     557,     585,     555,     610,     529,     548
     602,     551,     548,     582,     547,     500,     550,     561
     551,     542,     519,     570,     556,     533,     505,     534
     540,     526,     517,     544,     558,     563,     521,     522
     518,     545,     561,     534,     512,     504,     525,     520
     531,     532,     546,     533,     543,     556,     559,     542
     503,     492,     510,     517,     503,     502,     533,     545
     527,     523,     523,     505,     496,     516,     535,     552
     531,     532,     506,     507,     505,     498,     523,     521
     508,     515,     499,     477,     487,     504,     516,     516
     495,     474,     488,     522,     525,     519,     486,     506
     494,     481,     500,     519,     512,     533,     505,     480
     488,     465,     476,     487,     465,     508,     496,     499
     531,     491,     503,     510,     520,     540,     547,     518
     522,     503,     515,     507,     512,     508,     505,     490
     536,     523,     539,     526,     483,     496,     497,     517
     525,     508,     538,     515,     486,     486,     484,     499
     495,     509,     501,     503,     483,     484,     513,     518
     511,     551,     523,     481,     486,     489,     486,     499
     478,     481,     496,     479,     489,     487,     488,     488
     488,     489,     485,     490,     501,     497,     495,     505
     487,     482,     490,     480,     481,     474,     523,     471
     478,     512,     566,     561,     545,     530,     558,     563
     658,     678,     709,     836,     923,    1105,    1325,    1502
    1809,    2234,    2877,    3673,    4711,    5828,    6298,    5409
    4356,    3757,    3264,    3292,    3516,    2911,    2271,    1646
    1151,     835,     727,     626,     612,     571,     564,     564
     529,     513,     491,     507,     464,     477,     463,     459
     441,     474,     469,     470,     477,     477,     447,     451
     461,     478,     466,     448,     451,     477,     462,     420
     439,     459,     470,     487,     471,     456,     449,     451
     445,     435,     452,     456,     450,     456,     460,     452
     415,     399,     427,     429,     428,     460,     474,     462
     454,     461,     466,     450,     402,     417,     414,     433
     419,     424,     438,     431,     423,     446,     452,     442
     434,     434,     399,     382,     382,     379,     396,     428
     470,     438,     390,     390,     440,     434,     415,     415
     441,     409,     447,     421,     390,     405,     411,     426
     454,     419,     418,     447,     425,     418,     414,     425
     415,     450,     400,     411,     431,     417,     407,     437
     427,     424,     410,     424,     435,     420,     402,     426
     404,     396,     412,     424,     409,     382,     411,     412
     412,     432,     414,     408,     400,     402,     429,     419
     404,     399,     397,     387,     382,     386,     399,     386
     392,     409,     404,     401,     398,     392,     387,     407
     401,     366,     386,     420,     420,     436,     426,     412
     410,     404,     376,     374,     411,     419,     394,     399
     392,     411,     417,     397,     402,     381,     420,     381
     394,     383,     401,     414,     393,     419,     430,     391
     410,     393,     372,     380,     377,     373,     396,     380
     398,     331,     402,     399,     357,     358,     391,     403
     377,     390,     396,     399,     365,     332,     418,     376
     382,     385,     368,     368,     364,     369,     359,     395
     373,     373,     347,     335,     390,     396,     386,     376
     368,     363,     403,     391,     372,     369,     366,     384
     395,     374,     366,     375,     384,     385,     375,     384
     376,     374,     378,     384,     389,     366,     372,     391
     386,     385,     374,     372,     366,     351,     359,     357
     369,     384,     379,     376,     386,     391,     374,     347
     350,     369,     394,     396,     368,     347,     373,     364
     365,     357,     384,     397,     404,     335,     335,     338
     394,     373,     356,     366,     341,     363,     361,     359
     377,     356,     354,     360,     365,     348,     356,     337
     328,     343,     329,     346,     336,     361,     378,     371
     358,     326,     336,     344,     330,     360,     358,     343
     357,     363,     326,     355,     352,     326,     365,     372
     352,     347,     355,     334,     340,     341,     324,     352
     360,     338,     358,     342,     333,     355,     360,     349
     358,     356,     338,     330,     347,     356,     351,     340
     339,     361,     362,     358,     337,     324,     351,     369
     376,     370,     360,     354,     367,     373,     374,     367
     342,     342,     342,     357,     365,     353,     341,     351
     372,     356,     339,     347,     335,     339,     358,     344
     334,     313,     343,     337,     344,     371,     356,     334
     334,     311,     345,     359,     301,     361,     373,     336
     349,     286,     313,     352,     345,     320,     362,     348
     334,     367,     325,     341,     344,     310,     348,     362
     330,     343,     349,     327,     346,     339,     337,     309
     339,     317,     318,     337,     357,     336,     317,     325
     320,     310,     328,     342,     338,     333,     344,     323
     323,     336,     333,     325,     333,     330,     321,     318
     329,     326,     320,     334,     342,     320,     300,     323
     337,     329,     318,     316,     311,     304,     327,     329
     311,     323,     327,     299,     301,     343,     360,     331
     316,     346,     329,     315,     324,     316,     329,     301
     314,     301,     321,     316,     311,     309,     331,     322
     295,     298,     337,     323,     314,     342,     362,     345
     315,     334,     345,     318,     325,     303,     303,     330
     335,     353,     304,     336,     329,     322,     326,     330
     319,     328,     328,     328,     319,     353,     341,     335
     317,     303,     327,     312,     321,     302,     310,     312
     326,     310,     313,     280,     301,     330,     321,     292
     300,     327,     317,     325,     319,     305,     298,     306
     318,     325,     316,     323,     320,     298,     319,     330
     312,     304,     309,     312,     317,     311,     299,     298
     316,     327,     319,     320,     320,     333,     349,     354
     366,     362,     340,     349,     366,     328,     338,     343
     336,     334,     315,     346,     337,     320,     352,     347
     316,     328,     354,     343,     334,     330,     336,     343
     343,     335,     334,     338,     306,     342,     324,     312
     343,     335,     322,     323,     326,     334,     302,     375
     344,     359,     349,     322,     320,     321,     344,     293
     305,     294,     330,     342,     331,     324,     347,     338
     328,     358,     343,     349,     312,     334,     361,     325
     324,     341,     325,     313,     317,     324,     335,     339
     343,     337,     335,     365,     352,     357,     358,     347
     351,     362,     368,     371,     363,     362,     369,     381
     403,     428,     424,     451,     498,     499,     536,     586
     632,     724,     837,     951,    1144,    1462,    1887,    2514
    3407,    4816,    6441,    8036,    9302,    8842,    6669,    4630
    3471,    3277,    3651,    4309,    4784,    4597,    3452,    2267
    1414,     949,     704,     630,     529,     488,     482,     464
     405,     403,     409,     403,     374,     387,     353,     353
     363,     348,     364,     338,     357,     360,     311,     308
     317,     320,     333,     341,     352,     340,     324,     350
     332,     293,     310,     323,     315,     331,     318,     318
     298,     287,     278,     290,     289,     289,     299,     302
     274,     295,     315,     305,     286,     296,     298,     294
     295,     313,     317,     288,     284,     309,     287,     275
     297,     301,     300,     301,     302,     313,     291,     276
     318,     323,     301,     296,     284,     279,     280,     288
     300,     297,     284,     291,     286,     291,     304,     305
     303,     275,     274,     286,     261,     249,     273,     279
     262,     283,     297,     301,     282,     284,     306,     329
     305,     312,     303,     261,     276,     307,     286,     262
     285,     282,     285,     300,     278,     315,     284,     299
     262,     277,     282,     266,     283,     292,     286,     292
     251,     279,     298,     252,     300,     312,     264,     292
     281,     270,     281,     247,     236,     262,     261,     244
     272,     254,     243,     268,     284,     254,     258,     282
     274,     252,     253,     262,     250,     254,     270,     255
     256,     263,     280,     281,     270,     276,     280,     266
     282,     293,     275,     276,     279,     260,     260,     274
     268,     282,     296,     272,     253,     253,     267,     262
     249,     245,     265,     292,     287,     257,     268,     240
     239,     250,     272,     266,     259,     262,     253,     271
     258,     252,     241,     268,     295,     278,     286,     245
     266,     251,     280,     274,     264,     266,     259,     245
     247,     278,     260,     275,     258,     247,     237,     235
     237,     237,     237,     245,     243,     261,     278,     244
     236,     255,     268,     236,     261,     281,     247,     269
     267,     264,     259,     264,     264,     276,     290,     288
     251,     242,     272,     274,     252,     276,     270,     259
     270,     269,     247,     253,     264,     277,     271,     250
     252,     284,     299,     289,     270,     280,     266,     255
     267,     261,     270,     272,     273,     256,     258,     292
     291,     281,     249,     263,     275,     249,     245,     264
     268,     282,     273,     275,     280,     305,     290,     275
     293,     309,     285,     287,     330,     326,     300,     287
     318,     303,     301,     293,     292,     312,     291,     296
     284,     272,     245,     268,     281,     279,     247,     232
     239,     289,     230,     259,     259,     247,     246,     260
     257,     255,     265,     242,     255,     270,     261,     264
     281,     285,     286,     276,     248,     265,     259,     268
     274,     268,     261,     287,     306,     325,     302,     300
     327,     315,     343,     364,     366,     388,     446,     527
     615,     777,    1032,    1324,    1677,    2166,    2648,    2883
    2848,    2469,    1803,    1297,    1162,    1209,    1325,    1524
    1605,    1537,    1339,     998,     724,     515,     420,     370
     332,     326,     297,     285,     291,     266,     267,     254
     261,     276,     244,     264,     258,     260,     256,     242
     270,     241,     279,     255,     217,     235,     265,     239
     255,     258,     257,     231,     237,     234,     233,     256
     230,     232,     239,     248,     266,     262,     234,     224
     243,     222,     261,     255,     244,     216,     255,     215
     265,     247,     246,     258,     235,     229,     240,     245
     219,     226,     230,     265,     238,     252,     242,     212
     224,     249,     245,     255,     234,     228,     221,     219
     236,     266,     256,     228,     243,     241,     235,     230
     228,     239,     227,     214,     228,     237,     233,     215
     215,     238,     240,     234,     230,     230,     229,     238
     258,     237,     216,     224,     217,     214,     231,     223
     211,     213,     226,     237,     254,     246,     267,     266
     253,     239,     274,     302,     333,     314,     322,     366
     389,     471,     617,     743,     971,    1054,    1026,     897
     680,     506,     448,     464,     468,     540,     613,     665
     575,     494,     430,     357,     330,     318,     300,     293
     309,     249,     272,     272,     267,     261,     248,     259
     289,     307,     278,     269,     265,     268,     247,     259
     244,     245,     236,     240,     231,     228,     220,     225
     240,     255,     275,     289,     273,     310,     312,     263
     254,     272,     241,     223,     222,     228,     236,     241
     251,     245,     237,     239,     219,     195,     201,     221
     217,     220,     228,     209,     207,     211,     216,     222
     213,     200,     213,     222,     209,     214,     226,     239
     224,     227,     213,     211,     224,     214,     203,     209
     211,     206,     232,     227,     213,     231,     227,     227
     217,     221,     220,     233,     227,     205,     202,     203
     224,     203,     230,     231,     204,     202,     222,     187
     218,     207,     219,     207,     223,     230,     193,     199
     229,     202,     207,     253,     220,     222,     228,     219
     231,     202,     229,     218,     220,     227,     224,     234
     216,     219,     218,     210,     200,     206,     212,     212
     223,     210,     197,     218,     212,     206,     216,     217
     219,     226,     233,     224,     219,     225,     218,     196
     193,     207,     217,     221,     210,     209,     213,     215
     226,     223,     219,     208,     205,     218,     214,     212
     214,     208,     193,     196,     205,     216,     204,     202
     204,     228,     239,     236,     229,     226,     210,     206
     233,     211,     217,     225,     245,     255,     259,     273
     277,     276,     280,     278,     286,     316,     308,     269
     312,     364,     376,     434,     507,     657,     835,    1044
    1437,    2154,    2879,    3661,    4269,    4162,    3368,    2356
    1554,    1202,    1177,    1321,    1632,    1930,    2145,    2213
    1967,    1435,    1003,     659,     491,     393,     345,     305
     297,     281,     255,     248,     241,     243,     247,     216
     216,     228,     251,     230,     223,     220,     200,     196
     210,     202,     189,     201,     204,     203,     208,     204
     204,     196,     196,     222,     211,     201,     212,     202
     215,     220,     215,     202,     191,     188,     184,     188
     201,     203,     196,     187,     189,     195,     184,     184
     175,     184,     208,     207,     195,     213,     203,     195
     209,     202,     199,     213,     182,     201,     205,     170
     175,     170,     183,     202,     213,     173,     178,     198
     193,     193,     161,     218,     216,     212,     202,     187
     170,     205,     189,     175,     191,     184,     209,     204
     186,     194,     199,     187,     186,     214,     192,     184
     175,     197,     211,     195,     182,     175,     191,     206
     207,     206,     182,     181,     185,     182,     175,     183
     185,     182,     167,     163,     179,     187,     188,     184
     178,     175,     173,     181,     187,     185,     183,     181
     177,     181,     177,     177,     189,     179,     186,     177
     178,     176,     170,     178,     183,     181,     184,     204
     195,     202,     189,     186,     183,     177,     175,     195
     205,     186,     187,     173,     192,     189,     202,     192
     180,     193,     192,     205,     180,     191,     202,     182
     175,     156,     186,     176,     194,     182,     177,     180
     209,     196,     188,     166,     159,     169,     183,     179
     183,     153,     164,     173,     174,     181,     180,     190
     189,     184,     190,     185,     198,     199,     193,     197
     177,     183,     167,     159,     173,     190,     191,     189
     185,     191,     177,     165,     180,     171,     163,     177
     170,     172,     179,     187,     189,     181,     186,     178
     169,     178,     180,     177,     176,     178,     167,     153
     175,     187,     173,     171,     172,     180,     185,     186
     183,     167,     162,     174,     188,     171,     163,     162
     166,     183,     181,     188,     189,     169,     175,     191
     193,     211,     224,     210,     241,     257,     233,     273
     238,     222,     214,     215,     186,     197,     190,     216
     176,     215,     200,     202,     199,     189,     201,     175
     190,     162,     167,     182,     170,     197,     185,     169
     184,     169,     184,     185,     183,     174,     153,     168
     168,     192,     196,     175,     171,     194,     185,     164
     165,     178,     158,     180,     180,     169,     180,     165
     158,     158,     172,     188,     180,     177,     167,     164
     178,     179,     168,     181,     187,     161,     159,     173
     161,     168,     169,     151,     157,     165,     176,     186
     183,     175,     174,     173,     168,     158,     156,     158
     152,     159,     194,     171,     165,     162,     168,     171
     171,     192,     174,     174,     170,     156,     153,     171
     163,     161,     180,     190,     172,     167,     165,     175
     195,     167,     168,     172,     183,     161,     184,     174
     169,     172,     177,     164,     184,     183,     152,     176
     138,     160,     185,     171,     176,     173,     176,     159
     160,     166,     181,     168,     168,     183,     171,     160
     178,     171,     191,     177,     164,     182,     188,     183
     179,     187,     192,     185,     190,     203,     177,     188
     207,     196,     193,     193,     205,     206,     208,     241
     237,     222,     248,     284,     317,     365,     479,     736
    1050,    1433,    1918,    2101,    1824,    1396,    1029,     722
     544,     462,     471,     543,     722,     958,    1112,    1092
     985,     787,     592,     447,     389,     335,     299,     297
     383,     440,     588,     775,     954,    1172,    1226,    1210
    1107,     982,     761,     566,     473,     443,     440,     525
     643,     687,     711,     722,     618,     511,     453,     346
     277,     241,     210,     204,     195,     187,     168,     151
     173,     165,     181,     172,     158,     170,     157,     186
     174,     175,     170,     178,     171,     171,     170,     157
     158,     155,     179,     175,     160,     160,     187,     186
     162,     159,     165,     180,     161,     147,     152,     159
     159,     160,     170,     179,     182,     170,     160,     160
     162,     154,     150,     155,     158,     164,     170,     179
     166,     157,     162,     162,     179,     174,     163,     166
     157,     171,     173,     180,     162,     170,     165,     156
     160,     145,     143,     150,     156,     147,     155,     145
     161,     157,     169,     149,     137,     150,     171,     149
     148,     162,     154,     140,     168,     152,     151,     163
     151,     144,     143,     147,     158,     176,     134,     145
     171,     182,     169,     172,     157,     159,     159,     167
     159,     153,     149,     164,     165,     166,     170,     159
     143,     166,     165,     145,     150,     172,     175,     177
     163,     172,     182,     190,     179,     171,     169,     163
     164,     187,     205,     206,     190,     190,     249,     285
     311,     369,     481,     673,     921,    1101,    1152,    1039
     764,     505,     361,     299,     278,     312,     355,     421
     527,     594,     651,     645,     525,     393,     282,     234
     212,     192,     179,     177,     174,     187,     162,     170
     175,     166,     172,     177,     154,     175,     141,     169
     136,     165,     174,     166,     165,     138,     150,     172
     169,     164,     134,     193,     159,     133,     154,     150
     157,     149,     136,     155,     145,     155,     171,     158
     151,     143,     166,     147,     154,     156,     156,     146
     146,     160,     156,     170,     160,     148,     161,     155
     166,     152,     150,     156,     157,     155,     167,     157
     128,     136,     155,     146,     150,     147,     157,     160
     159,     153,     155,     149,     146,     143,     139,     148
     151,     144,     152,     142,     135,     152,     152,     148
     146,     140,     154,     162,     145,     158,     161,     146
     135,     129,     142,     153,     150,     145,     143,     164
     160,     156,     156,     142,     151,     155,     143,     153
     162,     146,     150,     142,     137,     151,     148,     136
     135,     150,     140,     140,     141,     132,     127,     141
     134,     125,     168,     140,     151,     126,     150,     147
     142,     144,     139,     154,     135,     145,     141,     135
     149,     139,     122,     146,     151,     130,     166,     134
     147,     138,     129,     143,     145,     157,     168,     140
     140,     153,     138,     114,     117,     113,     129,     156
     157,     155,     145,     145,     156,     163,     157,     147
     155,     153,     137,     124,     137,     143,     140,     155
     141,     121,     132,     145,     156,     160,     150,     147
     144,     141,     149,     143,     156,     154,     131,     125
     146,     149,     135,     125,     124,     136,     144,     144
     136,     133,     164,     161,     158,     145,     143,     170
     150,     133,     129,     128,     153,     146,     142,     152
     134,     142,     124,     142,     124,     149,     125,     149
     156,     118,     144,     125,     136,     156,     136,     135
     121,     133,     119,     134,     137,     128,     119,     146
     148,     129,     151,     148,     140,     142,     141,     130
     124,     132,     146,     147,     121,     128,     148,     132
     127,     156,     161,     150,     142,     134,     131,     133
     137,     147,     138,     124,     135,     140,     134,     136
     145,     137,     138,     146,     137,     132,     135,     130
     127,     141,     147,     130,     126,     137,     128,     124
     136,     134,     140,     143,     135,     129,     131,     145
     133,     147,     139,     129,     140,     140,     145,     141
     130,     133,     137,     136,     144,     137,     139,     141
     126,     123,     128,     119,     125,     129,     138,     162
     137,     149,     135,     157,     146,     136,     165,     170
     163,     122,     148,     137,     119,     123,     145,     163
     128,     133,     143,     131,     132,     129,     129,     123
     133,     146,     135,     129,     132,     149,     151,     137
     129,     148,     144,     133,     134,     131,     124,     140
     164,     146,     153,     144,     138,     134,     150,     155
     145,     134,     141,     157,     155,     144,     133,     145
     163,     158,     143,     143,     144,     142,     153,     141
     135,     145,     143,     140,     146,     148,     150,     151
     136,     132,     148,     155,     134,     126,     142,     132
     120,     130,     125,     116,     126,     131,     145,     155
     142,     147,     139,     145,     139,     146,     150,     128
     125,     134,     143,     131,     162,     178,     150,     132
     177,     165,     172,     141,     141,     152,     138,     155
     133,     130,     146,     148,     143,     138,     141,     141
     138,     165,     154,     165,     148,     165,     166,     166
     123,     135,     148,     140,     124,     134,     154,     135
     145,     148,     131,     129,     137,     152,     156,     140
     145,     141,     138,     145,     149,     152,     144,     144
     148,     153,     161,     150,     143,     150,     147,     146
     153,     152,     144,     149,     155,     137,     127,     133
     133,     129,     125,     140,     152,     152,     146,     142
     142,     143,     145,     152,     138,     133,     151,     142
     157,     158,     154,     157,     148,     154,     147,     175
     156,     154,     149,     145,     150,     150,     135,     151
     158,     148,     164,     165,     152,     137,     148,     150
     151,     167,     150,     142,     148,     166,     172,     164
     166,     159,     168,     156,     168,     167,     189,     205
     184,     190,     187,     179,     222,     210,     211,     254
     300,     342,     415,     483,     564,     602,     547,     510
     483,     474,     470,     552,     704,     883,    1172,    1605
    2040,    2473,    2691,    2493,    1978,    1396,     955,     689
     568,     525,     511,     543,     659,     813,    1022,    1245
    1321,    1322,    1159,     859,     637,     449,     361,     294
     225,     223,     216,     200,     186,     169,     158,     175
     178,     160,     180,     174,     157,     153,     156,     156
     158,     146,     178,     160,     145,     152,     144,     171
     150,     161,     139,     146,     160,     150,     147,     159
     153,     141,     145,     142,     162,     144,     156,     169
     129,     152,     153,     143,     156,     119,     135,     130
     139,     143,     147,     148,     134,     154,     148,     137
     133,     145,     164,     135,     133,     133,     145,     134
     137,     137,     142,     141,     144,     147,     133,     140
     144,     142,     142,     144,     147,     130,     131,     133
     128,     130,     135,     132,     125,     132,     145,     142
     139,     133,     143,     157,     136,     134,     147,     146
     134,     128,     124,     138,     119,     116,     133,     138
     140,     126,     132,     131,     128,     125,     146,     142
     129,     122,     119,     122,     120,     146,     152,     158
     150,     147,     119,     139,     131,     141,     137,     147
     126,     140,     142,     142,     133,     115,     123,     137
     141,     128,     127,     126,     130,     139,     133,     127
     133,     140,     115,     129,     143,     142,     131,     120
     122,     141,     134,     141,     129,     126,     129,     153
     154,     128,     119,     120,     118,     117,     123,     122
     127,     143,     140,     127,     141,     154,     157,     145
     134,     137,     155,     138,     123,     137,     164,     168
     171,     204,     205,     189,     215,     230,     240,     274
     239,     185,     181,     158,     142,     141,     141,     153
     157,     174,     168,     169,     186,     197,     204,     187
     156,     154,     142,     137,     148,     147,     138,     127
     108,     116,     111,     128,     117,     121,     136,     133
     150,     122,     119,     126,     124,     131,     144,     114
     111,     135,     129,     116,     119,     114,     147,     122
     137,     141,     136,     137,     115,     137,     126,     129
     113,     141,     146,     125,     123,     120,     119,     125
     137,     138,     113,     120,     135,     131,     126,     136
     127,     130,     117,     117,     117,     119,     126,     124
     120,     120,     108,     110,     120,     133,     120,     108
     109,     114,     127,     123,     119,     116,     124,     131
     118,     111,     123,     138,     135,     128,     125,     133
     136,     125,     128,     124,     123,     122,     122,     136
     124,     123,     119,     116,     123,     119,     126,     120
     113,     124,     136,     128,     117,     140,     120,     126
     121,     117,     125,     119,     128,     119,     123,     132
     118,     132,     117,     119,     130,     127,     118,     116
     118,     100,     130,     130,     124,     143,     127,     116
     124,     122,     123,     129,     115,     115,     123,     113
     116,     112,     125,     120,     118,     112,     121,     132
     139,     124,     128,     128,     129,     109,     106,     129
     121,     128,     128,     120,     119,     126,     134,     132
     115,     113,     116,     117,     134,     138,     134,     127
     126,     133,     146,     149,     133,     117,     107,     109
     121,     122,     117,     119,     118,     114,     119,     130
     123,     111,     111,     112,     123,     131,     141,     133
     118,     141,     127,     119,     122,     127,     115,     112
     109,     128,     123,     109,     122,     128,     129,     137
     121,     131,     124,     130,     141,     124,     125,     142
     117,      96,     107,     117,     118,     149,     109,     108
     112,     130,     131,     144,     131,     121,     110,     121
     117,     140,     136,     124,     117,     114,     128,     127
     116,     117,     129,     121,     133,     149,     157,     140
     124,     125,     112,     141,     136,     113,     116,     115
     131,     142,     133,     140,     131,     119,     116,     118
     131,     131,     126,     132,     124,     123,     143,     165
     180,     181,     178,     181,     173,     162,     150,     135
     135,     139,     134,     134,     131,     135,     139,     153
     169,     151,     141,     163,     168,     161,     167,     160
     158,     155,     152,     140,     144,     152,     154,     133
     134,     130,     127,     144,     155,     190,     175,     174
     182,     188,     225,     218,     240,     293,     367,     484
     673,     826,    1164,    1283,    1496,    1408,    1178,     879
     689,     502,     388,     333,     285,     277,     292,     334
     385,     483,     607,     710,     803,     742,     699,     565
     441,     317,     280,     240,     210,     185,     166,     162
     156,     149,     144,     139,     138,     143,     149,     132
     131,     128,     125,     139,     131,     132,     128,     117
     134,     135,     133,     135,     134,     143,     134,     131
     129,     120,     126,     126,     133,     141,     134,     132
     138,     137,     117,     109,     126,     138,     117,     113
     105,     112,     118,     121,     127,     131,     132,     145
     132,     128,     119,     113,     130,     133,     135,     117
     123,     123,     138,     147,     128,     124,     136,     134
     119,     126,     138,     135,     117,     125,     106,     123
     139,     130,     133,     133,     146,     139,     131,     152
     139,     147,     134,     166,     203,     200,     231,     225
     311,     412,     501,     580,     685,     736,     716,     646
     561,     441,     347,     299,     233,     219,     233,     235
     249,     259,     290,     301,     379,     410,     409,     400
     382,     332,     266,     232,     218,     189,     161,     150
     147,     140,     133,     149,     154,     138,     123,     119
     139,     139,     141,     142,     119,     123,     121,     128
     116,     103,     112,     123,     123,     109,     102,     104
     115,     120,     132,     128,     119,     125,     115,     128
     123,     116,     113,     107,     106,     115,     104,     122
     123,     125,     139,     123,     135,     124,     136,     139
     123,     149,     139,     138,     147,     185,     217,     257
     324,     376,     481,     523,     540,     423,     341,     238
     168,     160,     165,     151,     146,     153,     159,     193
     194,     208,     221,     284,     313,     318,     253,     213
     190,     147,     131,     129,     136,     134,     132,     127
     132,     123,     108,     116,     129,     116,     115,     110
     102,      97,     104,     103,      93,      99,     101,     100
     111,     105,     100,     109,     103,      92,      97,     109
     104,     106,     115,     116,     101,     100,     108,     122
     116,     106,     116,     104,     108,     112,      98,     107
     108,     102,      93,     105,     111,     113,     113,     125
     100,      95,     103,     100,     102,     112,     114,     116
     101,     107,     120,     121,     125,      90,      97,     106
     109,     102,     106,     121,     117,      89,     109,     101
      97,     129,     125,     105,     108,     119,     111,     119
     117,     112,     108,     116,     118,     101,     107,     108
      97,      99,     108,     115,      99,     103,     108,      94
     103,     113,     111,     114,      99,     100,     108,     119
     115,     105,     117,     123,     118,     106,     104,     106
     114,     109,     106,     112,     112,     109,     106,     104
     102,     111,     116,     119,     119,     103,     111,     111
      93,     101,     124,     112,     108,     114,     109,     102
      94,     109,     107,      99,     109,     124,      97,      91
     105,      94,      98,      96,     100,      95,     109,     106
     113,      95,      98,     114,     116,     102,     111,     107
      90,     106,      87,      99,      85,      95,     124,      86
     123,     111,     107,     128,      97,     135,     116,     127
     116,     105,     110,     104,     106,     105,     108,     111
     101,      90,     101,     107,      96,      84,      97,     116
     108,      97,     134,     122,     108,     113,     106,     112
     104,     121,     114,     104,     103,     110,     104,     106
     108,     113,     109,      91,      87,      99,     102,     105
     103,     108,     106,      93,     102,     113,     105,      93
      95,      98,      98,     108,     105,     105,     107,     100
     108,     105,     117,     117,     108,      97,     104,     105
     101,      92,     100,     104,     105,      97,     110,     103
     101,     108,     113,     102,     104,     107,      97,     116
     118,     116,     104,     118,     101,      88,     107,      92
     110,     102,     105,      95,     106,     107,      99,     101
     107,     120,     109,     102,      96,     100,      90,      99
      89,      90,     115,      99,      97,      95,     105,     101
     107,      85,     104,     113,     106,     106,      85,      93
      92,      95,     101,      93,     118,     120,     103,     110
     113,      98,     107,     102,      98,      93,      97,     100
     105,     116,     104,      93,      96,      97,     103,     107
     103,     107,     105,     103,     106,      94,      91,      98
     110,     117,     107,      97,      94,      93,      99,     107
     112,     132,     111,      90,     100,     114,     117,     117
     105,     110,     103,     107,      92,      99,     109,     111
     109,     103,     107,      92,     106,     100,     100,     113
     110,     120,      89,      87,      90,      92,      88,      90
      93,     117,     111,     103,     109,      92,     106,     119
     108,     106,      97,      85,      99,     111,     115,     111
      93,     116,     112,      98,      87,      80,      76,     102
     100,      96,      99,      90,     101,     104,      91,      90
     105,      95,      97,     108,      96,     100,     111,     105
     101,      94,      86,      85,      94,     104,     120,     117
     102,     102,     103,      99,      97,      94,      87,      94
     100,     108,     109,      92,      92,      91,      93,      95
     102,     113,     101,     102,     108,     114,     108,      99
     100,      99,     101,     108,     100,     105,      85,     102
     102,      84,      96,     104,     108,      98,     106,     107
     120,      99,      95,      94,     102,     102,      99,     103
      96,      95,     106,      95,      93,     101,      84,     100
      79,     104,      99,      92,      99,      95,      98,     102
     107,     105,      94,     108,      97,     104,      95,     113
      89,     101,      91,     108,     112,      90,      91,     101
      91,      90,     100,     100,      94,      96,     103,      97
      98,     108,      95,      89,      97,     104,     106,     101
      96,     102,     107,     105,     104,     108,     113,     123
     125,     119,     116,     103,      98,     109,     108,     104
     107,     102,      95,     103,     103,      97,     102,     107
     109,     115,     109,     104,     107,     111,     122,     133
     138,     152,     163,     165,     183,     227,     272,     319
     354,     412,     445,     454,     406,     369,     305,     232
     205,     174,     191,     161,     172,     153,     145,     178
     149,     183,     221,     239,     240,     265,     278,     239
     243,     199,     194,     171,     169,     149,     123,     112
     136,     125,     124,     118,     124,     130,     110,     119
     110,     109,     105,      95,      95,     103,     106,     115
     122,     115,     103,     104,     112,      96,     101,     109
     103,     106,     113,     113,      99,     107,     115,     107
     109,     107,     107,     107,      95,     101,     108,     102
     103,     111,     115,      91,      84,     104,     102,     112
     117,     105,     102,      99,     102,     102,     103,      93
     108,     101,      91,      93,     104,      87,      85,     103
     105,      96,      94,      99,      88,     117,     121,     106
     100,      96,      91,      90,     107,     111,      88,     104
     114,      88,      95,     107,     117,      98,      96,     113
      91,     107,     106,     105,     109,     107,     101,     122
     110,     116,      97,     108,     102,     102,     108,      85
      98,      93,     114,     105,     107,     106,      87,      90
      96,      99,      82,     100,      91,      89,     109,     105
     119,     118,      93,      98,      99,     106,     107,     100
      97,      97,      87,      86,      94,     100,      92,      76
      76,     100,     103,      89,      96,     103,     102,      97
     100,     104,      84,      77,      84,      95,     109,      98
     103,     107,     102,      90,      86,      92,     111,     112
     106,      92,      94,     100,     106,     107,     104,      98
      96,     101,     118,     110,     114,      91,      95,      92
      91,      91,      95,      86,     110,     109,     100,     107
      98,      89,     108,      88,      88,     100,     115,     100
     107,      83,     102,     115,      97,     105,     111,      98
     104,      97,     117,     108,     114,     117,      96,     108
     114,     116,     107,      93,      92,      93,      96,      93
      91,      89,     108,     115,     113,      99,      97,      93
     105,     103,      98,      98,     101,     108,     109,     119
     116,     105,     109,     115,     114,     118,     117,     110
     116,     126,     124,     123,     135,     136,     139,     171
     204,     241,     286,     320,     372,     449,     461,     421
     361,     303,     247,     199,     206,     196,     166,     148
     152,     140,     144,     166,     179,     176,     178,     214
     233,     303,     331,     330,     370,     345,     350,     428
     466,     481,     456,     413,     356,     316,     238,     217
     180,     176,     152,     147,     129,     156,     134,     126
     140,     163,     182,     204,     234,     253,     262,     235
     266,     228,     202,     170,     154,     136,     134,     117
     117,     122,     118,     125,     105,      93,     102,     100
     109,     121,     134,     119,     109,     105,     114,     119
     104,     104,     107,     107,     111,     123,     113,      99
     101,     104,     101,     104,     104,      95,      87,      90
      96,      89,      94,      96,      93,     101,     102,      89
      91,      95,     106,      99,      97,     118,      96,      96
      99,      97,     107,     106,     106,     102,     108,      87
     100,     109,      96,     106,      97,      99,      89,      88
     104,     111,      94,      99,     106,     102,     116,     112
     110,     116,     114,     101,      82,     100,      87,     117
     105,      97,      91,      97,      91,      92,      87,      88
      91,      87,      91,     111,      99,     127,     113,      97
     106,      92,      92,      85,      75,      91,      93,      88
      83,     101,     110,      99,      99,      89,      93,     110
     121,     116,     112,      97,      87,      99,      96,      95
     101,     104,     111,     106,     103,     117,     112,      99
      96,      88,      91,     107,     107,     100,     107,     110
     105,     105,     102,     104,     104,      96,     113,     122
     116,     118,     125,     112,     111,     128,     122,     110
     118,     128,     147,     129,     112,     114,     114,     101
      98,      97,     106,     116,      86,      91,     106,     113
     107,     108,      82,     103,     122,     114,     110,     111
     115,     106,     137,     103,      94,     105,     103,     108
     105,      98,     109,     115,      95,     110,      91,      93
      96,     103,     107,     104,      95,      88,     107,      94
      92,      99,     116,     113,      95,      94,      94,     112
      94,     107,     101,      77,      88,     106,     104,     100
      96,     102,      95,     101,     102,      95,      96,      99
     100,     102,     105,     103,      99,      96,      95,      93
      87,      88,      92,      91,      94,     100,      95,     107
     109,      93,      94,     100,     105,     102,      94,      98
     100,      98,      96,     115,     119,     109,     102,     112
     107,     115,     100,      89,      99,      91,      77,     105
     107,      93,      88,      88,     104,     115,      88,      82
     104,      92,      96,     107,     103,     102,     110,      92
     102,     104,     101,     106,     113,     108,     105,     101
      82,      78,      99,      95,     108,     104,      96,      97
      84,     113,     109,     113,     124,     108,      96,     118
     108,     118,      98,      93,      84,      92,     102,     109
     105,      99,      94,      89,     103,     112,     102,     100
      97,      99,     108,      98,      96,      93,      94,     105
     104,     109,     113,     108,     107,     103,     108,     107
      90,      93,     103,     112,     110,     104,     107,     101
     104,     103,      94,      99,      99,     102,     101,      85
      87,     100,     104,      89,     100,     104,     108,      97
     105,      99,      96,      93,      93,     104,      89,      95
     112,     107,     100,      83,     115,     115,      92,     102
     109,      97,      92,     119,     107,     103,     104,      98
     117,      98,      78,      93,     107,      89,     101,     111
     124,     102,      94,     107,     101,     128,     117,      97
      95,      94,      95,      93,      97,     103,     105,     101
     108,     105,     106,      96,     104,     100,     105,     105
      94,     100,      99,      93,      92,      99,     105,     110
     113,     111,     109,     112,     108,     104,     105,     100
     104,     114,     115,     110,     104,     109,     111,     106
     113,     106,     102,      97,     107,     121,     131,     112
     109,     120,     116,     120,     124,     115,     114,     114
     125,     120,     162,     149,     173,     177,     206,     225
     273,     327,     401,     518,     674,     780,     809,     819
     799,     662,     529,     444,     351,     299,     237,     205
     188,     180,     179,     176,     201,     205,     205,     198
     231,     245,     307,     374,     418,     489,     536,     538
     530,     490,     512,     514,     652,     750,     842,     851
     793,     614,     438,     341,     297,     250,     221,     201
     187,     164,     144,     158,     167,     154,     157,     165
     181,     201,     219,     263,     316,     374,     445,     464
     424,     360,     292,     237,     190,     158,     145,     139
     122,     115,     123,     122,     123,     120,     127,     124
     120,     122,     113,     113,     120,     121,     102,     101
     105,     112,     126,     105,     107,     104,     108,     107
     115,     108,     117,     104,      98,      95,     105,     113
     104,     109,     100,     105,     111,     106,      96,      91
     113,     110,     102,     116,     100,     112,      94,     113
      93,      83,     108,     105,     100,     102,     113,     105
     120,      97,      96,     105,     109,      97,     103,     107
     100,      97,     103,      99,      96,     113,     101,     103
     102,     100,      94,     105,     120,      97,      90,      88
      99,     103,     117,     107,      95,      92,      94,     109
     106,      97,      95,     101,     101,     102,      97,      96
     110,      96,      86,      98,      99,      96,      94,      92
      93,      95,      87,      92,     107,     113,      97,      98
      99,      97,      92,     107,     115,     110,     103,      92
      88,     100,      98,      97,      92,      92,     112,     104
     107,     109,     103,     107,     105,     112,      87,     107
      98,      97,     120,      93,      90,      94,     110,      97
     106,     116,     105,     106,     104,      89,      83,      84
      95,     100,     113,     112,     106,     103,     101,     108
     104,     100,     108,     102,     106,     100,      91,     110
     103,     109,     109,     109,     108,     111,     109,     107
     128,     115,      99,      94,     114,     102,      85,      98
     108,      97,      94,      99,     104,     101,     104,     101
      99,     100,     101,     108,     111,     114,     117,     109
     105,     106,     103,      99,      87,      94,     106,     100
     106,     111,     109,     106,      98,     102,      98,     105
      96,      93,      89,      88,      87,      97,      96,      98
      90,      96,     100,      86,      97,      88,     108,     109
      89,     103,     117,      77,     105,      90,      95,      93
     114,     114,     106,     100,     101,     102,     127,      98
     101,      85,     118,      97,      91,      92,      98,     101
     106,     104,     115,     112,     110,     108,      96,     109
     100,     103,     100,      98,      88,      87,     107,     102
      93,     108,     110,     115,      96,      95,     102,      96
      96,     108,     106,     110,     114,     113,     122,     110
      99,      99,     100,      98,      96,     104,     107,      99
      89,      98,     101,      92,     100,     117,     114,      96
     102,     110,     108,     105,     110,     115,     104,     103
      96,     106,     105,      98,     104,     100,     102,     102
     104,      96,      86,      99,      91,      97,     109,      93
     100,      91,      93,      94,     101,      99,      91,     105
      89,      98,      94,      99,     103,     103,     107,      88
     106,     106,     109,      94,      84,      98,     108,     104
     106,     108,     110,     118,     117,     113,     101,      85
     107,     119,     103,     108,      92,      91,      94,      96
      94,     106,      99,      96,     104,     108,      97,      90
     107,     105,     109,     102,     116,     115,     111,     114
      97,      88,      94,     110,     122,     115,     119,     116
      98,      92,      96,     101,     109,     107,     106,     102
      93,      99,     114,     118,     106,      96,      89,     101
     116,     116,     113,     105,      95,     102,     111,     111
     116,     115,     116,     109,     102,     112,     126,     115
     106,     108,      99,     107,     125,     119,     124,     123
     127,     112,     119,     128,     134,     138,     145,     169
     180,     208,     187,     193,     200,     212,     198,     199
     175,     147,     158,     144,     150,     148,     167,     165
     155,     142,     178,     177,     178,     192,     232,     268
     287,     411,     537,     669,     696,     682,     662,     569
     444,     379,     318,     262,     236,     211,     177,     166
     161,     164,     152,     157,     142,     146,     156,     154
     164,     185,     194,     217,     254,     300,     344,     351
     364,     357,     318,     264,     213,     191,     176,     168
     153,     136,     126,     122,     122,     116,     119,     134
     137,     121,     102,      98,     104,     117,     112,     110
     113,     104,     113,     107,     105,     116,     106,     121
     123,     103,      99,     104,     104,     117,     105,     103
     102,      91,     109,     111,     107,     104,     106,      94
     103,     112,     110,     117,      83,     120,      97,      74
      99,     107,      89,      92,     107,     113,     110,     111
     112,      95,     103,      97,     102,     102,     115,     114
     114,     100,      97,     106,      98,     100,     114,      97
      97,     114,     108,     106,      90,      88,      96,     108
     105,     100,     119,     114,     106,     108,     114,      96
      95,     106,     103,     103,     101,      97,      90,      93
     102,      96,      99,     102,      96,     100,     108,     113
     107,     108,     107,      96,      95,      94,     106,     119
     105,     109,     118,     106,     104,      95,      94,      97
     117,      98,     107,     115,     100,     108,     106,     117
     115,     110,      92,     102,      85,     110,     102,      97
      93,     100,     100,      98,     115,     108,      92,     104
      88,     103,     119,     109,      89,      99,     103,      90
     116,     111,     100,     107,     113,     105,      99,      96
     102,      96,      82,     102,     103,     111,     103,     111
     111,     103,      93,     103,     108,     112,     109,     102
     103,      89,     105,     106,     107,     112,     118,     109
     105,     109,     110,     112,     105,      98,      97,     111
     116,     106,     106,     109,     111,     118,     122,     112
     107,     104,      98,     101,     106,     104,      98,      97
     107,     112,      94,     102,     108,     110,     121,     115
     105,     102,      92,      96,     102,      94,      96,     105
     107,     127,     111,     109,     104,      96,      91,      91
     104,     101,     102,     109,     120,     119,     121,     108
     114,     121,     119,     127,      96,     111,     104,     114
     114,     114,      94,     110,     100,      93,      97,     110
      88,     125,      98,      99,     113,     114,     101,      96
     123,     121,     106,     113,     106,      94,     101,     104
     102,      91,      99,     104,      98,     102,     109,     105
     115,     108,     103,     100,      97,      95,     113,     118
     113,     108,     111,     107,     114,     106,      91,     106
     118,     115,      95,      90,      97,      91,      97,     104
     105,     101,      97,      97,     101,     116,     108,      99
     105,     105,     107,      96,      89,      89,      96,     108
     114,     109,     107,     110,     100,     101,      99,     101
     102,     109,     109,     118,     102,     105,     105,     105
      94,     108,     109,      97,      94,     108,     105,     117
     108,     123,     117,     116,     126,     114,     124,     112
      88,     103,     119,     110,     125,     119,     120,     121
     138,     128,     153,     157,     163,     181,     191,     179
     178,     151,     151,     151,     126,     131,     129,     118
     129,     130,     107,     114,     122,     125,     125,     119
     124,     107,     106,     121,     121,     116,     127,     129
     130,     130,     131,     144,     148,     131,     129,     139
     137,     135,     125,     119,     119,     110,     107,     106
      97,      98,     107,     100,     117,     120,     118,     117
     117,     126,     117,     109,     110,     103,     111,     114
     118,     119,     126,     125,     115,     116,     123,     139
     121,     131,     114,     127,     123,     118,     120,     130
     121,     135,     146,     139,     141,     143,     157,     146
     170,     163,     179,     146,     140,     142,     154,     137
     139,     124,     120,     133,     121,     137,     130,     122
     128,     123,     116,     122,     128,     135,     110,     107
     119,     145,     148,     126,     126,     127,     129,     122
     130,     139,     132,     127,     132,     128,     129,     131
     140,     141,     123,     131,     137,     136,     132,     126
     130,     137,     135,     138,     152,     153,     151,     173
     200,     201,     224,     271,     296,     359,     424,     471
     539,     525,     454,     404,     323,     254,     239,     214
     187,     191,     158,     136,     172,     146,     142,     140
     126,     132,     131,     135,     158,     171,     159,     161
     167,     190,     170,     209,     243,     271,     304,     293
     279,     270,     279,     223,     189,     158,     175,     164
     131,     125,     147,     123,     102,     103,     120,     112
     124,     116,     120,     122,     108,     121,     124,     121
     122,     111,     110,     113,     118,     123,     115,     110
     105,      97,     115,     119,     111,     120,     121,     114
     114,     140,     132,     113,     111,     117,     121,     133
     134,     128,     123,     135,     139,     134,     135,     130
     121,     146,     162,     145,     148,     148,     151,     154
     142,     128,     128,     146,     154,     157,     173,     180
     184,     192,     244,     265,     288,     326,     371,     382
     360,     356,     329,     290,     261,     230,     233,     200
     189,     179,     167,     157,     144,     136,     132,     147
     125,     120,     135,     127,     135,     132,     128,     141
     157,     167,     185,     203,     209,     233,     217,     213
     221,     197,     201,     192,     159,     148,     151,     149
     144,     151,     127,     130,     106,     116,     126,     123
     111,     107,     119,     106,     111,     125,     120,     117
     121,     115,     119,     105,     117,     120,     135,     125
      98,      95,     118,     109,     106,     102,     107,     110
     112,     124,     122,     108,     111,     113,     105,     106
     111,     107,     111,     120,     109,     106,     105,     116
     111,     107,     111,     104,     111,     112,     109,     108
      94,      94,     118,     122,     104,     109,     112,     118
     118,     109,      96,     120,     115,     121,     110,      93
     109,     110,      99,     114,     116,     122,     124,     128
     103,     109,     126,     113,     113,     114,     129,      99
     120,     124,     115,     133,     131,     103,     128,     126
     111,     104,      98,     107,     100,     108,     102,      99
     107,     114,     108,     122,     129,     114,     122,     102
     115,     132,     131,     110,     110,     107,     109,     119
     104,     106,     109,     107,     112,     133,     123,     106
     103,     101,     103,     111,     111,     112,     110,     114
     115,     102,     112,     118,     104,     100,     115,     127
     118,     107,     109,     120,     115,     107,     108,     118
     123,     106,     100,     109,     115,     103,     108,     121
     111,     100,     106,     123,     114,     110,     115,     109
     110,     100,     112,     118,     121,     120,     130,     120
     101,     108,     110,     109,     118,     108,     104,      97
     109,     101,     103,     106,      89,     117,     113,     113
     116,     125,     116,     122,     116,     110,     119,     112
     101,      97,      98,     115,     100,     103,     103,     112
     125,     114,     101,     106,     119,     116,     113,     116
     115,     125,     111,     104,      97,     115,     120,     114
     108,     115,     122,     124,     123,     129,     125,     118
     119,     109,     112,     115,     124,     132,     126,     129
     127,     116,     112,     114,     110,     111,     114,     104
     111,     116,     121,     128,     124,     112,     120,     138
     137,     138,     140,     140,     132,     137,     165,     164
     191,     207,     282,     319,     352,     439,     467,     499
     435,     377,     312,     242,     237,     198,     185,     177
     133,     137,     161,     163,     115,     139,     122,     144
     134,     123,     130,     149,     144,     136,     137,     168
     152,     144,     158,     164,     197,     205,     233,     275
     296,     291,     282,     247,     220,     210,     193,     168
     150,     148,     136,     128,     124,     137,     135,     133
     126,     127,     125,     121,     103,     102,     105,     107
     113,     111,     104,     105,     123,     125,     121,     120
     122,     122,     117,     123,     128,     116,     113,     115
     109,     106,     105,     109,     125,     124,     106,     114
     113,     119,     127,     126,     125,     117,     101,     111
     118,      96,     110,     136,     123,     109,     102,     114
      99,     109,     114,     108,     128,     108,     108,     113
      81,      98,     116,     113,     116,     111,     109,     119
     124,     115,     126,     110,      99,     110,     134,     102
     110,     109,     107,     147,     125,     124,     115,     126
     115,     139,     130,     148,     112,     113,     137,     125
     117,     119,     140,     151,     148,     144,     176,     192
     214,     233,     241,     258,     300,     240,     229,     239
     217,     199,     167,     160,     163,     162,     146,     131
     131,     125,     123,     130,     127,     125,     126,     130
     132,     130,     130,     137,     137,     133,     145,     151
     136,     144,     166,     159,     173,     189,     177,     188
     199,     171,     154,     159,     140,     137,     128,     120
     129,     120,     119,     119,     108,      97,     107,      98
     119,     111,     119,     136,     118,     122,     113,     121
     120,     127,     111,     122,     121,     114,     106,     125
     103,     113,     112,     113,     115,     118,     107,     104
     141,     122,     100,     122,     101,      97,      89,     104
     125,     117,     114,     107,     108,     106,     119,     100
     122,     115,      99,     119,     131,     106,     108,     105
     107,     111,     109,     116,     104,     120,     118,     105
     110,     100,      90,      95,      91,     105,     118,     114
     110,     103,     111,     111,     105,     111,     105,     107
     107,     101,     105,     111,     121,     127,     122,     114
     105,     110,     118,     108,     118,     122,     107,     112
     127,     113,     113,      85,      95,      92,     102,     120
     118,     102,     112,     122,     122,     124,     109,     115
     127,     110,     112,     104,     117,     129,     122,     110
     114,     119,     121,     112,     119,     118,     108,     113
     117,     109,     101,     124,     118,     114,     130,     117
      88,     123,     130,      98,     120,     103,     107,     118
     122,     121,     111,     103,     119,     109,     110,     120
     113,     130,     120,     101,     108,     103,     103,     110
     111,     109,     108,     121,     129,     118,     121,     117
     112,     119,     118,     129,     141,     121,     118,     117
     108,     112,     120,     122,     116,     131,     136,     118
     113,     113,     112,     114,     121,     116,     116,     114
     112,     101,     115,     130,     114,     121,     130,     124
     116,     126,     126,     122,     109,     131,     138,     134
     129,     139,     142,     150,     159,     149,     163,     197
     208,     218,     231,     266,     228,     222,     230,     241
     205,     192,     173,     153,     176,     144,     171,     131
     150,     165,     130,     147,     134,     139,     122,     132
     136,     127,     121,     133,     132,     125,     130,     150
     138,     164,     155,     128,     144,     151,     158,     175
     184,     189,     177,     177,     162,     171,     168,     154
     149,     143,     152,     156,     146,     136,     128,     127
     132,     137,     140,     139,     130,     120,     124,     123
     116,     112,     116,     132,     132,     118,     102,     100
     124,     137,     111,     113,     131,     130,     126,     113
     104,     107,     120,     121,     110,      98,     111,     121
     107,     119,     119,     114,     145,     118,     114,     117
     111,     119,     120,     112,     115,     119,     119,     122
     112,     129,     128,     137,     127,     112,     127,     110
     112,     125,     137,     131,     121,     127,     126,     123
     111,     127,     119,     120,     117,     109,     105,     109
     120,     116,     118,     133,     122,     120,     121,     116
      93,     107,      94,     105,      98,     122,     114,     108
     117,     128,     120,     124,     128,     124,     119,     113
     101,     109,     114,     115,     122,     119,     117,     121
     120,     110,     106,     115,     125,     124,     126,     130
     120,     121,     124,     119,     114,     108,     111,     118
     116,     111,     117,     128,     112,     128,     134,     107
     106,     116,     123,     118,     138,     132,     125,     117
     132,     130,     124,     110,     125,     115,     113,     126
     125,     147,     134,     136,     119,     116,     139,     140
     114,     136,     107,     130,     118,     110,     126,     119
     119,     128,     138,     118,     121,     135,     126,     122
     123,     116,     132,     138,     134,     118,     137,     120
     118,     115,     120,     124,     120,     102,     111,     125
     121,     127,     137,     134,     136,     139,     143,     136
     116,     112,     129,     131,     130,     120,     116,     119
     128,     133,     118,     114,     129,     132,     138,     124
     106,     111,     123,     123,     120,     137,     134,     122
     120,     130,     125,     121,     122,     114,     123,     121
     115,     112,     124,     126,     123,     119,     134,     128
     115,     135,     117,     116,     124,     136,     109,     111
     131,     124,     139,     138,     131,     132,     126,     129
     127,     114,     132,     126,     108,     129,     129,     111
     134,     126,     119,     137,     121,     117,     132,     121
     155,     138,     138,     142,     120,     130,     151,     137
     131,     136,     132,     140,     146,     144,     136,     148
     155,     181,     173,     178,     200,     207,     193,     220
     256,     289,     321,     359,     394,     407,     394,     405
     395,     397,     375,     329,     287,     266,     228,     201
     201,     182,     178,     178,     178,     177,     161,     145
     146,     156,     156,     148,     138,     148,     158,     155
     152,     160,     168,     169,     162,     163,     148,     153
     175,     193,     193,     215,     264,     264,     261,     255
     285,     280,     262,     251,     211,     198,     202,     194
     168,     157,     179,     152,     152,     148,     139,     158
     126,     140,     142,     161,     134,     121,     140,     120
     152,     142,     134,     128,     111,     141,     141,     140
     134,     131,     146,     135,     121,     126,     132,     142
     147,     116,     127,     136,     115,     112,     125,     134
     142,     129,     122,     141,     135,     133,     141,     145
     121,     117,     113,     115,     130,     120,     118,     135
     134,     133,     128,     130,     134,     126,     124,     125
     118,     125,     147,     146,     122,     118,     119,     122
     139,     143,     150,     145,     134,     117,     113,     127
     127,     123,     111,     114,     127,     132,     128,     116
     147,     132,     106,     127,     131,     131,     148,     145
     143,     118,     126,     130,     137,     148,     137,     132
     120,     120,     150,     112,     157,     113,     129,     130
     121,     125,     109,     133,     123,     145,     126,     111
     121,     130,     133,     149,     127,     118,     111,     129
     126,     154,     122,     113,     124,     114,     133,     132
     135,     127,     111,     113,     132,     122,     128,     125
     110,     132,     124,     126,     117,     126,     150,     153
     142,     133,     129,     136,     140,     145,     129,     124
     130,     133,     126,     131,     143,     127,     116,     130
     130,     130,     135,     135,     139,     142,     143,     136
     128,     126,     128,     126,     126,     147,     136,     135
     149,     147,     147,     139,     138,     158,     152,     150
     152,     159,     158,     159,     148,     157,     160,     160
     155,     162,     155,     153,     168,     151,     153,     145
     148,     130,     150,     168,     167,     196,     175,     182
     200,     212,     231,     268,     280,     355,     418,     459
     511,     508,     518,     437,     438,     357,     332,     288
     272,     233,     238,     236,     207,     179,     190,     211
     188,     164,     160,     167,     165,     163,     150,     154
     159,     156,     145,     144,     144,     150,     162,     167
     166,     164,     172,     167,     151,     167,     188,     193
     207,     215,     236,     277,     304,     302,     305,     304
     277,     251,     220,     210,     208,     205,     196,     173
     176,     175,     170,     163,     163,     159,     154,     166
     154,     136,     134,     140,     158,     137,     129,     157
     140,     152,     145,     155,     137,     158,     159,     139
     127,     156,     166,     157,     129,     140,     135,     136
     138,     145,     110,     144,     142,     131,     140,     157
     144,     147,     132,     139,     134,     132,     137,     140
     134,     141,     134,     114,     120,     134,     152,     125
     117,     136,     136,     149,     131,     128,     134,     135
     131,     138,     146,     131,     143,     135,     125,     136
     130,     132,     146,     135,     135,     150,     148,     140
     130,     127,     125,     134,     140,     138,     138,     132
     139,     145,     149,     145,     131,     147,     165,     163
     154,     151,     160,     149,     123,     138,     162,     155
     143,     149,     150,     151,     150,     139,     141,     146
     174,     167,     175,     178,     152,     180,     191,     204
     218,     216,     225,     236,     261,     229,     215,     224
     233,     213,     224,     192,     202,     212,     178,     173
     167,     148,     160,     156,     158,     154,     143,     145
     120,     132,     154,     138,     136,     137,     147,     142
     147,     147,     164,     162,     164,     148,     154,     153
     172,     172,     152,     141,     143,     160,     166,     169
     170,     177,     194,     212,     214,     185,     179,     175
     170,     171,     177,     165,     153,     150,     143,     138
     136,     140,     150,     147,     138,     140,     138,     144
     155,     145,     141,     138,     140,     153,     144,     140
     150,     142,     139,     135,     138,     140,     137,     125
     134,     140,     133,     155,     158,     135,     137,     137
     143,     150,     156,     143,     146,     134,     131,     117
     133,     135,     157,     137,     128,     137,     131,     138
     143,     139,     129,     126,     142,     135,     148,     167
     138,     157,     143,     139,     141,     164,     155,     140
     143,     144,     132,     140,     137,     151,     164,     156
     147,     136,     148,     134,     121,     159,     147,     133
     127,     143,     136,     141,     143,     139,     142,     134
     146,     142,     148,     142,     147,     141,     143,     156
     150,     135,     129,     130,     138,     141,     136,     138
     138,     142,     143,     140,     153,     158,     158,     150
     138,     139,     143,     164,     162,     142,     150,     158
     146,     150,     156,     140,     137,     146,     157,     161
     155,     161,     153,     150,     145,     143,     152,     152
     166,     170,     175,     172,     189,     179,     180,     178
     192,     184,     217,     220,     243,     239,     259,     262
     333,     350,     404,     439,     472,     551,     604,     639
     684,     735,     729,     670,     612,     547,     524,     447
     411,     378,     358,     333,     297,     280,     282,     237
     223,     230,     219,     181,     176,     170,     184,     202
     171,     190,     191,     200,     203,     185,     165,     153
     158,     189,     190,     174,     197,     204,     205,     214
     238,     256,     234,     238,     280,     305,     311,     323
     350,     382,     404,     416,     400,     388,     382,     350
     315,     303,     300,     272,     256,     238,     233,     218
     204,     179,     172,     168,     189,     205,     195,     156
     161,     173,     166,     165,     155,     166,     156,     145
     160,     146,     138,     139,     162,     160,     165,     162
     159,     147,     145,     129,     124,     115,     138,     136
     161,     148,     150,     152,     150,     151,     144,     138
     129,     138,     163,     154,     132,     155,     130,     160
     147,     141,     168,     143,     154,     158,     169,     150
     151,     137,     136,     148,     150,     142,     147,     143
     142,     150,     144,     169,     150,     132,     140,     129
     133,     149,     156,     149,     153,     147,     139,     145
     147,     138,     140,     155,     155,     149,     150,     149
     146,     148,     141,     133,     146,     147,     142,     136
     140,     140,     152,     137,     130,     142,     146,     136
     137,     129,     125,     138,     143,     158,     150,     127
     155,     155,     145,     128,     153,     145,     131,     127
     157,     128,     124,     153,     138,     138,     143,     146
     141,     143,     155,     122,     151,     136,     141,     149
     153,     148,     130,     133,     128,     140,     133,     123
     146,     147,     141,     144,     135,     148,     137,     132
     141,     154,     139,     147,     124,     140,     142,     153
     146,     153,     144,     152,     164,     151,     142,     146
     155,     150,     140,     132,     144,     160,     156,     137
     134,     127,     139,     139,     131,     144,     147,     146
     145,     153,     155,     132,     129,     141,     137,     138
     138,     142,     139,     135,     143,     146,     151,     156
     129,     135,     135,     134,     142,     149,     137,     129
     147,     139,     152,     139,     141,     152,     164,     123
     153,     155,     151,     160,     134,     136,     135,     150
     137,     151,     153,     133,     145,     132,     115,     144
     137,     154,     154,     152,     150,     168,     149,     135
     159,     154,     178,     124,     157,     155,     151,     159
     179,     183,     206,     237,     218,     219,     251,     273
     267,     264,     245,     229,     212,     205,     195,/
