SampleIdent,,/
Title1,Configuration=Conf.Stage for flat samples/holders, Owner=User-1, Creation date=11/4/2011 2:21:53 PM,/
Title2,Goniometer=Theta/Theta; Minimum step size 2Theta:0.0001; Minimum step size Omega:0.0001,/
DiffrType,0000000011114271,/
DiffrNumber,  0,/
Anode,Cu,/
LabdaAlpha1, 1.54060,/
LabdaAlpha2, 1.54443,/
RatioAlpha21, 0.50000,/
DivergenceSlit,Fixed, 0.22,/
ReceivingSlit, 0.10,/
MonochromatorUsed,NO,/
GeneratorVoltage,  40,/
TubeCurrent,  40,/
FileDateTime, 10/19/2016 9:15:26 AM,/
DataAngleRange,  20.0158, 136.9898,/
ScanStepSize,   0.013,/
ScanType,Continuous,/
ScanStepTime,  58.40,/
RawScan
    1530,    1601,    1510,    1524,    1533,    1544,    1520,    1550
    1526,    1518,    1536,    1537,    1548,    1556,    1498,    1563
    1530,    1505,    1471,    1454,    1522,    1567,    1523,    1481
    1532,    1561,    1480,    1490,    1490,    1507,    1479,    1409
    1431,    1491,    1490,    1493,    1506,    1468,    1431,    1503
    1511,    1486,    1481,    1445,    1446,    1468,    1452,    1470
    1491,    1480,    1461,    1457,    1451,    1446,    1454,    1463
    1485,    1483,    1488,    1499,    1492,    1459,    1441,    1419
    1395,    1404,    1421,    1426,    1431,    1400,    1384,    1436
    1435,    1471,    1495,    1402,    1410,    1418,    1402,    1421
    1388,    1377,    1393,    1414,    1394,    1418,    1388,    1429
    1464,    1315,    1407,    1380,    1393,    1286,    1355,    1403
    1360,    1451,    1424,    1392,    1413,    1392,    1372,    1408
    1337,    1355,    1396,    1371,    1339,    1366,    1357,    1354
    1367,    1355,    1359,    1347,    1334,    1362,    1385,    1391
    1349,    1353,    1328,    1394,    1426,    1412,    1361,    1366
    1300,    1322,    1326,    1312,    1311,    1295,    1308,    1320
    1353,    1361,    1343,    1316,    1340,    1359,    1374,    1382
    1348,    1305,    1303,    1312,    1295,    1347,    1388,    1373
    1324,    1327,    1358,    1335,    1303,    1249,    1258,    1269
    1271,    1299,    1329,    1330,    1301,    1283,    1279,    1306
    1344,    1340,    1322,    1290,    1249,    1231,    1248,    1255
    1263,    1268,    1285,    1301,    1308,    1293,    1269,    1279
    1320,    1231,    1253,    1277,    1296,    1254,    1270,    1274
    1269,    1296,    1238,    1228,    1255,    1295,    1228,    1281
    1253,    1316,    1250,    1233,    1261,    1239,    1280,    1162
    1256,    1258,    1236,    1246,    1230,    1244,    1212,    1282
    1284,    1238,    1278,    1293,    1261,    1319,    1256,    1254
    1218,    1210,    1234,    1196,    1191,    1186,    1196,    1202
    1217,    1202,    1200,    1201,    1195,    1240,    1238,    1249
    1250,    1226,    1219,    1199,    1194,    1205,    1162,    1142
    1159,    1195,    1218,    1206,    1216,    1221,    1216,    1234
    1207,    1165,    1212,    1238,    1202,    1157,    1133,    1179
    1168,    1167,    1197,    1245,    1264,    1197,    1175,    1200
    1187,    1193,    1238,    1176,    1176,    1191,    1209,    1250
    1201,    1176,    1179,    1211,    1179,    1156,    1159,    1157
    1116,    1219,    1165,    1099,    1187,    1191,    1193,    1235
    1149,    1212,    1110,    1156,    1151,    1176,    1160,    1170
    1122,    1136,    1118,    1151,    1144,    1176,    1128,    1229
    1160,    1134,    1134,    1170,    1223,    1156,    1191,    1182
    1143,    1186,    1143,    1123,    1137,    1118,    1132,    1124
    1138,    1115,    1165,    1193,    1146,    1125,    1092,    1116
    1151,    1126,    1102,    1112,    1140,    1162,    1133,    1102
    1142,    1139,    1150,    1144,    1107,    1115,    1094,    1112
    1132,    1095,    1132,    1153,    1149,    1154,    1108,    1100
    1116,    1096,    1103,    1164,    1145,    1122,    1142,    1176
    1103,    1115,    1151,    1145,    1128,    1064,    1083,    1079
    1130,    1105,    1108,    1059,    1051,    1060,    1060,    1067
    1108,    1118,    1105,    1072,    1079,    1048,    1101,    1097
    1093,    1060,    1120,    1089,    1114,    1111,    1067,    1108
    1102,    1146,    1070,    1104,    1130,    1127,    1060,    1058
    1080,    1092,    1094,    1077,    1118,    1080,    1074,    1039
    1092,    1084,    1098,    1118,    1178,    1104,    1075,    1096
    1160,    1119,    1145,    1129,    1141,    1103,    1130,    1145
    1170,    1180,    1164,    1131,    1132,    1100,    1127,    1146
    1096,    1099,    1103,    1114,    1098,    1053,    1029,    1019
    1058,    1074,    1099,    1128,    1079,    1033,    1027,    1011
    1046,    1083,    1067,    1068,    1066,    1085,    1080,    1060
    1065,    1079,    1083,    1020,    1021,    1014,    1074,    1084
    1030,    1030,     992,     997,    1029,    1056,    1062,    1079
    1102,    1047,    1038,    1006,    1075,    1083,    1043,    1038
    1018,    1022,    1103,    1041,    1023,    1048,    1009,    1039
    1009,    1033,     981,    1076,    1054,    1066,    1089,    1044
    1068,    1092,    1121,    1054,    1083,    1116,    1154,    1075
    1036,    1041,    1112,    1098,    1077,    1091,    1031,    1020
    1024,    1037,    1038,    1022,     994,    1024,    1045,     997
     980,     976,    1023,    1018,    1040,    1029,    1008,    1001
    1042,    1061,    1052,    1025,     998,     996,     988,    1020
    1025,    1029,    1026,    1025,    1045,    1043,     993,     985
    1022,    1009,     977,    1014,    1031,    1015,    1008,    1010
    1005,     978,    1033,    1085,    1064,    1005,    1034,    1043
    1070,    1106,    1116,    1136,    1137,    1159,    1134,    1150
    1187,    1190,    1161,    1184,    1142,    1152,    1143,    1120
    1129,    1173,    1140,    1185,    1180,    1186,    1161,    1166
    1254,    1232,    1245,    1241,    1185,    1173,    1229,    1198
    1192,    1187,    1211,    1252,    1195,    1221,    1258,    1227
    1238,    1247,    1246,    1259,    1220,    1251,    1258,    1250
    1281,    1287,    1323,    1324,    1330,    1357,    1414,    1359
    1461,    1483,    1535,    1635,    1723,    1815,    2000,    2166
    2308,    2667,    2928,    3269,    3818,    4562,    5365,    6337
    7436,    8990,   11164,   14283,   18216,   23203,   30167,   38533
   44063,   39883,   29017,   21619,   20538,   22251,   21493,   16122
    9780,    5844,    4083,    3260,    2856,    2551,    2232,    2067
    1962,    1878,    1772,    1678,    1575,    1498,    1444,    1414
    1362,    1312,    1348,    1325,    1265,    1242,    1237,    1243
    1211,    1191,    1171,    1145,    1161,    1187,    1164,    1134
    1105,    1138,    1105,    1127,    1104,    1133,    1046,    1090
    1037,    1080,    1092,    1097,    1058,    1014,    1088,    1063
    1099,    1072,    1088,    1109,    1093,    1044,    1046,    1096
    1132,    1024,    1017,    1031,     990,    1006,    1007,     997
    1017,     978,     996,    1065,    1028,     981,     963,     985
     968,     981,    1023,    1033,    1013,     967,     984,    1010
     964,     966,     958,     960,     969,    1010,    1007,     973
     969,    1006,     946,     954,     948,     956,    1023,     997
     938,     968,    1004,     989,     976,     958,     954,     978
     970,     925,     923,     939,     968,    1016,     975,     973
     977,     950,     924,     958,     983,     947,     940,     917
     935,     964,     972,     966,     896,     918,     925,     912
     984,     942,     951,     944,     905,     922,     913,     931
     951,     926,     956,     950,     918,     958,     974,     877
     957,     861,     890,     957,     930,     954,     931,     889
     888,     913,     971,     963,     908,     941,     887,     960
     922,     896,     984,     979,     880,     926,     969,     968
     949,     986,     934,     892,     894,     960,     943,     868
     891,     900,     877,     910,     932,     936,     948,     926
     886,     887,     893,     923,     921,     881,     911,     917
     921,     927,     938,     973,     934,     901,     884,     859
     866,     859,     869,     875,     859,     863,     855,     876
     892,     876,     888,     876,     868,     862,     907,     899
     888,     866,     880,     864,     880,     914,     891,     861
     854,     841,     854,     857,     846,     859,     859,     872
     863,     887,     896,     923,     868,     919,     832,     834
     889,     872,     864,     893,     920,     898,     853,     898
     851,     868,     874,     794,     844,     847,     853,     821
     858,     819,     835,     795,     854,     823,     817,     870
     806,     830,     852,     852,     788,     847,     819,     860
     831,     826,     864,     821,     812,     825,     843,     805
     817,     835,     832,     856,     841,     810,     836,     826
     785,     772,     795,     827,     824,     826,     858,     868
     822,     792,     812,     828,     802,     793,     783,     781
     809,     828,     832,     812,     810,     805,     788,     784
     795,     796,     807,     831,     789,     763,     764,     800
     784,     805,     807,     797,     742,     773,     780,     811
     822,     729,     770,     758,     759,     771,     803,     816
     786,     791,     811,     750,     857,     800,     756,     784
     760,     753,     794,     772,     773,     838,     765,     791
     804,     722,     783,     779,     789,     743,     778,     781
     760,     764,     737,     765,     736,     791,     741,     787
     800,     798,     791,     767,     772,     774,     746,     764
     801,     800,     731,     733,     761,     744,     740,     725
     751,     774,     765,     746,     737,     723,     733,     736
     740,     747,     763,     755,     759,     774,     761,     745
     750,     753,     756,     749,     753,     752,     732,     747
     735,     707,     721,     744,     733,     711,     722,     738
     732,     747,     763,     772,     740,     724,     728,     725
     740,     725,     698,     713,     732,     720,     695,     721
     729,     752,     756,     725,     728,     766,     780,     742
     711,     715,     741,     746,     721,     742,     760,     760
     750,     735,     739,     742,     732,     764,     699,     726
     716,     686,     659,     709,     704,     751,     662,     730
     677,     672,     702,     729,     703,     669,     691,     679
     670,     710,     677,     667,     723,     695,     681,     655
     679,     685,     680,     685,     708,     681,     662,     674
     658,     653,     671,     689,     684,     652,     653,     651
     663,     674,     684,     720,     696,     680,     704,     678
     668,     691,     680,     679,     676,     662,     686,     694
     684,     658,     665,     694,     704,     688,     677,     654
     657,     672,     663,     634,     662,     693,     712,     703
     706,     755,     716,     651,     658,     691,     681,     694
     665,     662,     676,     658,     694,     657,     661,     673
     666,     719,     707,     697,     692,     653,     713,     665
     655,     635,     714,     728,     642,     671,     663,     666
     623,     674,     659,     654,     661,     650,     650,     663
     625,     681,     616,     627,     653,     642,     620,     630
     629,     629,     631,     603,     640,     634,     638,     619
     649,     633,     624,     624,     631,     629,     622,     674
     673,     654,     652,     656,     652,     658,     662,     666
     636,     635,     653,     648,     631,     639,     649,     630
     616,     602,     627,     648,     638,     629,     630,     659
     644,     614,     625,     631,     642,     592,     616,     601
     640,     658,     629,     647,     659,     623,     626,     591
     611,     613,     587,     595,     604,     577,     611,     632
     657,     643,     623,     652,     615,     577,     598,     609
     607,     614,     593,     604,     596,     543,     563,     580
     621,     643,     599,     578,     573,     619,     607,     640
     621,     613,     652,     619,     633,     579,     573,     586
     572,     611,     596,     575,     576,     581,     562,     595
     618,     631,     642,     631,     631,     608,     613,     669
     667,     591,     607,     613,     579,     607,     620,     597
     588,     588,     587,     585,     597,     607,     600,     574
     569,     608,     630,     607,     571,     562,     587,     606
     597,     586,     585,     607,     621,     598,     585,     596
     598,     596,     587,     602,     592,     604,     577,     598
     579,     564,     580,     593,     595,     565,     566,     584
     596,     620,     607,     584,     599,     599,     558,     602
     621,     568,     587,     605,     587,     581,     558,     570
     593,     565,     588,     581,     597,     532,     580,     583
     573,     588,     559,     586,     551,     590,     583,     621
     589,     592,     562,     561,     551,     538,     599,     575
     558,     567,     575,     574,     615,     581,     543,     544
     566,     606,     589,     548,     558,     554,     551,     545
     541,     546,     552,     534,     535,     583,     585,     551
     561,     577,     584,     574,     575,     577,     569,     565
     565,     595,     605,     594,     591,     573,     581,     598
     596,     620,     606,     604,     576,     563,     553,     555
     565,     579,     610,     565,     565,     576,     583,     541
     571,     553,     556,     556,     550,     565,     523,     525
     590,     588,     578,     574,     554,     531,     535,     552
     553,     498,     539,     581,     561,     581,     567,     529
     543,     594,     575,     565,     563,     562,     528,     533
     538,     586,     579,     554,     552,     544,     550,     545
     568,     535,     542,     518,     553,     559,     535,     561
     553,     561,     551,     544,     559,     522,     549,     563
     558,     539,     508,     536,     544,     584,     579,     539
     559,     592,     579,     555,     574,     583,     546,     546
     556,     549,     546,     546,     542,     536,     547,     544
     545,     546,     552,     570,     578,     583,     533,     543
     527,     533,     556,     563,     561,     536,     541,     530
     526,     558,     586,     563,     560,     551,     542,     546
     570,     558,     543,     538,     553,     575,     589,     547
     570,     496,     533,     552,     531,     545,     550,     485
     563,     575,     518,     543,     549,     580,     530,     516
     537,     534,     537,     515,     518,     540,     547,     583
     539,     550,     525,     522,     535,     555,     540,     547
     531,     563,     527,     543,     569,     543,     525,     532
     547,     573,     535,     555,     554,     529,     514,     523
     543,     536,     532,     532,     536,     495,     530,     560
     548,     540,     523,     528,     544,     547,     516,     501
     490,     485,     506,     508,     518,     521,     511,     504
     513,     521,     526,     530,     535,     541,     518,     497
     518,     526,     511,     524,     519,     482,     490,     535
     494,     513,     468,     462,     563,     508,     554,     520
     510,     500,     494,     559,     518,     537,     534,     538
     526,     501,     527,     467,     543,     520,     515,     561
     540,     548,     533,     504,     510,     544,     520,     558
     560,     515,     558,     588,     551,     573,     586,     558
     574,     580,     604,     573,     561,     570,     548,     507
     491,     474,     486,     516,     538,     542,     531,     528
     532,     519,     502,     498,     521,     517,     514,     532
     500,     500,     503,     516,     515,     495,     488,     497
     504,     517,     515,     491,     482,     504,     504,     495
     522,     534,     518,     495,     491,     486,     501,     506
     495,     508,     519,     490,     482,     496,     514,     530
     484,     487,     535,     500,     509,     497,     493,     498
     491,     460,     516,     502,     491,     524,     534,     515
     523,     556,     550,     543,     518,     527,     538,     521
     547,     525,     547,     536,     530,     531,     510,     558
     516,     536,     466,     499,     511,     553,     518,     513
     504,     537,     513,     498,     522,     547,     502,     518
     525,     550,     517,     485,     520,     492,     510,     506
     550,     524,     501,     480,     484,     461,     492,     486
     506,     482,     459,     487,     478,     478,     486,     505
     502,     488,     473,     472,     490,     494,     495,     499
     486,     476,     488,     513,     518,     478,     470,     471
     464,     500,     507,     500,     478,     514,     525,     489
     469,     475,     464,     485,     484,     469,     480,     497
     501,     508,     494,     456,     464,     465,     472,     487
     503,     473,     500,     485,     510,     494,     513,     471
     524,     490,     516,     484,     482,     496,     493,     487
     520,     515,     490,     499,     522,     463,     513,     489
     487,     479,     486,     494,     471,     438,     492,     481
     456,     482,     459,     462,     466,     488,     525,     539
     522,     483,     495,     480,     485,     488,     500,     482
     480,     477,     490,     459,     460,     450,     456,     450
     444,     456,     467,     463,     446,     473,     489,     495
     474,     445,     456,     461,     465,     477,     474,     466
     490,     527,     515,     489,     503,     522,     535,     534
     508,     507,     526,     544,     533,     505,     487,     505
     521,     493,     481,     502,     534,     551,     514,     502
     528,     533,     521,     518,     498,     479,     514,     535
     509,     506,     534,     505,     509,     522,     535,     513
     488,     509,     494,     500,     508,     542,     511,     485
     483,     529,     493,     492,     503,     506,     509,     519
     513,     536,     477,     491,     523,     549,     475,     509
     504,     532,     514,     493,     521,     490,     519,     514
     485,     500,     506,     546,     537,     558,     527,     533
     549,     541,     527,     529,     549,     543,     567,     549
     540,     572,     567,     567,     563,     561,     566,     556
     556,     602,     630,     623,     651,     655,     652,     657
     646,     699,     731,     753,     802,     851,     937,     970
    1035,    1056,    1124,    1201,    1289,    1415,    1532,    1719
    1974,    2335,    2804,    3408,    4381,    5620,    7474,    9766
   12861,   16710,   20362,   21600,   18367,   12338,    8324,    6758
    6679,    7171,    8617,   10074,   11162,   10896,    8265,    5347
    3465,    2566,    2075,    1689,    1469,    1276,    1178,    1057
     964,     977,     893,     836,     810,     816,     754,     726
     751,     702,     662,     648,     586,     636,     598,     615
     622,     593,     576,     609,     632,     649,     610,     578
     556,     544,     528,     514,     543,     526,     543,     538
     520,     550,     555,     498,     486,     475,     478,     486
     484,     479,     486,     476,     460,     458,     471,     494
     495,     466,     443,     468,     482,     459,     463,     472
     476,     457,     442,     491,     488,     468,     476,     461
     449,     438,     471,     443,     467,     471,     456,     441
     449,     457,     474,     461,     436,     501,     485,     487
     488,     475,     462,     481,     501,     487,     437,     503
     454,     459,     444,     421,     452,     431,     398,     392
     435,     455,     390,     423,     445,     470,     464,     419
     449,     451,     445,     424,     435,     466,     439,     467
     457,     439,     449,     470,     421,     434,     455,     445
     428,     424,     410,     424,     457,     445,     439,     406
     427,     443,     430,     419,     414,     441,     431,     413
     409,     442,     440,     426,     430,     442,     438,     423
     390,     379,     408,     418,     404,     394,     417,     425
     389,     397,     441,     436,     406,     411,     419,     422
     413,     389,     407,     413,     410,     426,     409,     378
     380,     395,     423,     410,     389,     388,     406,     418
     413,     404,     385,     399,     371,     435,     423,     415
     386,     410,     415,     376,     402,     428,     452,     413
     445,     410,     437,     427,     439,     397,     438,     424
     406,     418,     412,     392,     422,     406,     447,     426
     434,     454,     448,     469,     444,     438,     387,     396
     411,     458,     417,     371,     396,     384,     365,     363
     375,     382,     409,     419,     422,     386,     398,     391
     394,     404,     418,     426,     425,     410,     409,     390
     394,     401,     390,     410,     407,     398,     401,     403
     402,     405,     396,     381,     406,     417,     388,     383
     400,     397,     384,     362,     365,     373,     357,     354
     383,     399,     405,     406,     413,     386,     382,     424
     410,     427,     429,     445,     436,     409,     408,     417
     388,     411,     404,     373,     366,     403,     389,     393
     376,     402,     398,     424,     381,     361,     381,     392
     394,     369,     392,     400,     359,     364,     368,     403
     376,     375,     374,     379,     384,     397,     391,     385
     428,     412,     379,     414,     395,     373,     357,     364
     368,     390,     365,     354,     375,     383,     368,     403
     392,     395,     381,     358,     381,     372,     357,     382
     385,     350,     358,     369,     366,     353,     358,     366
     378,     366,     359,     380,     386,     379,     359,     350
     362,     371,     376,     367,     367,     393,     398,     384
     384,     369,     396,     384,     346,     367,     384,     399
     403,     364,     370,     377,     374,     364,     355,     376
     380,     370,     367,     371,     366,     358,     356,     391
     374,     376,     352,     416,     388,     364,     366,     385
     357,     363,     355,     329,     352,     314,     358,     372
     374,     358,     329,     373,     411,     356,     362,     391
     408,     381,     346,     341,     355,     386,     324,     365
     381,     374,     346,     359,     373,     341,     386,     358
     347,     361,     375,     365,     354,     355,     365,     372
     343,     333,     317,     324,     338,     358,     340,     315
     338,     376,     346,     334,     369,     361,     359,     357
     342,     334,     334,     340,     350,     361,     355,     343
     337,     355,     357,     346,     350,     335,     331,     331
     314,     346,     369,     359,     349,     329,     347,     367
     347,     344,     331,     336,     338,     356,     360,     354
     339,     331,     322,     358,     341,     339,     375,     343
     329,     339,     375,     365,     385,     349,     386,     345
     369,     351,     365,     339,     336,     388,     368,     358
     376,     329,     365,     384,     355,     356,     377,     346
     371,     397,     346,     378,     389,     384,     373,     348
     370,     393,     370,     378,     348,     346,     403,     382
     363,     352,     363,     354,     321,     361,     381,     323
     338,     384,     392,     375,     362,     354,     366,     375
     381,     369,     365,     352,     351,     371,     377,     387
     380,     366,     359,     360,     377,     380,     371,     357
     344,     350,     365,     347,     345,     362,     378,     358
     326,     334,     378,     351,     351,     341,     370,     368
     362,     380,     366,     349,     365,     364,     357,     357
     374,     361,     370,     386,     355,     330,     396,     369
     382,     391,     380,     401,     369,     383,     360,     376
     404,     371,     331,     354,     411,     404,     367,     415
     386,     384,     409,     379,     418,     419,     417,     447
     420,     366,     413,     430,     419,     426,     434,     463
     452,     465,     445,     456,     470,     490,     518,     531
     563,     603,     601,     605,     630,     653,     692,     701
     724,     767,     804,     865,     953,    1037,    1153,    1317
    1581,    1930,    2373,    3035,    4012,    5346,    6936,    8894
   11137,   12455,   11497,    8744,    6075,    4353,    3487,    3301
    3402,    3755,    4500,    5297,    6168,    6411,    5759,    4304
    2934,    2088,    1545,    1309,    1087,     961,     874,     785
     741,     680,     690,     636,     586,     565,     535,     531
     510,     486,     475,     510,     498,     482,     439,     454
     451,     464,     396,     408,     413,     440,     439,     405
     360,     383,     367,     404,     376,     384,     341,     348
     356,     367,     365,     371,     383,     364,     391,     361
     355,     334,     341,     327,     334,     364,     367,     364
     411,     371,     359,     356,     353,     337,     364,     379
     350,     343,     350,     354,     320,     301,     322,     342
     338,     348,     360,     335,     328,     347,     335,     326
     319,     312,     330,     332,     320,     317,     326,     341
     355,     336,     298,     328,     332,     308,     316,     354
     352,     331,     335,     329,     322,     332,     316,     325
     332,     334,     300,     314,     328,     334,     309,     312
     347,     340,     321,     320,     349,     325,     337,     330
     324,     298,     335,     317,     306,     291,     303,     329
     313,     295,     298,     306,     333,     311,     334,     320
     304,     333,     300,     302,     297,     319,     331,     308
     324,     320,     322,     301,     287,     296,     309,     306
     351,     340,     305,     319,     310,     327,     323,     297
     327,     316,     311,     320,     321,     319,     309,     300
     301,     301,     316,     329,     328,     316,     300,     295
     300,     320,     318,     312,     298,     295,     319,     320
     306,     305,     304,     300,     300,     291,     286,     286
     308,     316,     294,     295,     316,     299,     319,     324
     314,     339,     334,     299,     289,     306,     285,     280
     293,     300,     301,     279,     291,     299,     293,     304
     298,     301,     307,     331,     300,     278,     299,     286
     274,     303,     326,     331,     292,     306,     287,     292
     292,     293,     299,     326,     300,     278,     293,     284
     271,     300,     314,     315,     297,     288,     305,     281
     296,     296,     297,     292,     299,     300,     281,     276
     291,     277,     271,     280,     294,     293,     284,     293
     299,     311,     292,     285,     306,     320,     308,     296
     309,     316,     306,     302,     296,     282,     295,     288
     282,     288,     288,     297,     281,     270,     283,     290
     291,     299,     303,     281,     280,     303,     297,     277
     278,     281,     276,     286,     282,     299,     296,     303
     308,     275,     281,     314,     271,     259,     306,     280
     259,     303,     287,     244,     266,     266,     266,     279
     259,     277,     298,     305,     297,     291,     276,     260
     318,     278,     285,     269,     281,     284,     310,     314
     308,     309,     299,     279,     265,     278,     306,     307
     308,     292,     302,     301,     297,     294,     319,     314
     294,     283,     285,     308,     296,     294,     292,     307
     308,     282,     283,     310,     310,     290,     284,     294
     272,     259,     271,     275,     279,     260,     268,     287
     271,     270,     275,     290,     307,     286,     266,     278
     288,     285,     289,     285,     276,     273,     271,     281
     295,     304,     272,     257,     277,     268,     293,     275
     296,     289,     272,     285,     282,     271,     334,     304
     300,     276,     276,     285,     295,     282,     280,     291
     276,     280,     276,     286,     287,     286,     302,     279
     279,     265,     264,     286,     276,     266,     285,     271
     285,     294,     274,     271,     271,     289,     290,     259
     245,     269,     269,     283,     270,     263,     274,     273
     294,     290,     295,     271,     294,     288,     274,     249
     269,     277,     263,     274,     263,     275,     249,     244
     270,     282,     280,     287,     288,     268,     259,     271
     276,     265,     246,     237,     266,     263,     260,     273
     280,     279,     250,     248,     264,     268,     281,     292
     277,     261,     264,     263,     267,     274,     284,     262
     257,     277,     284,     271,     243,     236,     245,     272
     264,     262,     242,     274,     272,     267,     285,     297
     296,     269,     246,     261,     270,     261,     252,     228
     258,     227,     266,     270,     261,     227,     238,     246
     277,     277,     272,     266,     280,     309,     257,     261
     235,     245,     263,     249,     265,     248,     277,     283
     259,     259,     240,     241,     255,     277,     298,     264
     266,     234,     235,     256,     249,     268,     283,     265
     279,     278,     250,     253,     247,     251,     257,     267
     243,     258,     245,     242,     243,     266,     277,     242
     244,     259,     251,     264,     248,     233,     229,     246
     266,     264,     275,     269,     262,     247,     228,     238
     249,     250,     253,     268,     262,     245,     247,     279
     259,     244,     246,     264,     285,     284,     278,     264
     258,     257,     246,     250,     276,     255,     234,     242
     275,     243,     238,     275,     267,     262,     237,     249
     260,     261,     245,     238,     267,     272,     243,     243
     241,     239,     244,     256,     273,     232,     272,     237
     255,     263,     266,     250,     245,     263,     222,     270
     245,     231,     265,     259,     248,     233,     215,     259
     242,     257,     228,     229,     238,     267,     267,     257
     251,     236,     248,     238,     241,     246,     242,     220
     218,     233,     244,     259,     255,     264,     264,     256
     261,     266,     244,     253,     271,     241,     217,     229
     252,     250,     248,     253,     252,     249,     244,     254
     241,     251,     271,     266,     241,     241,     256,     274
     278,     272,     252,     247,     260,     256,     234,     224
     236,     248,     261,     251,     235,     245,     254,     232
     267,     228,     224,     244,     228,     211,     232,     247
     256,     256,     239,     241,     232,     215,     239,     239
     228,     226,     215,     275,     247,     235,     218,     240
     237,     242,     237,     224,     237,     237,     214,     240
     240,     244,     231,     218,     230,     231,     225,     236
     255,     244,     240,     228,     223,     256,     253,     231
     254,     280,     281,     258,     236,     234,     244,     242
     252,     267,     276,     274,     268,     274,     263,     249
     234,     246,     255,     242,     242,     254,     257,     240
     256,     254,     247,     268,     254,     230,     234,     221
     227,     248,     234,     218,     241,     261,     251,     263
     251,     238,     236,     211,     204,     222,     242,     246
     210,     239,     240,     266,     252,     265,     240,     243
     262,     266,     261,     249,     242,     245,     260,     267
     254,     233,     223,     234,     268,     259,     229,     278
     231,     245,     212,     264,     262,     235,     228,     233
     236,     275,     278,     251,     254,     223,     241,     239
     231,     213,     238,     246,     258,     241,     209,     233
     233,     233,     257,     254,     255,     234,     239,     252
     271,     243,     231,     215,     221,     223,     246,     262
     247,     249,     248,     228,     235,     265,     262,     259
     256,     231,     231,     252,     255,     241,     242,     240
     245,     252,     236,     249,     268,     262,     245,     253
     238,     231,     240,     232,     241,     264,     261,     255
     271,     252,     269,     247,     220,     231,     261,     246
     264,     251,     262,     244,     258,     248,     264,     262
     276,     237,     272,     259,     259,     230,     259,     243
     255,     241,     229,     240,     244,     281,     241,     234
     257,     256,     249,     244,     229,     253,     262,     270
     296,     297,     273,     315,     293,     269,     274,     289
     286,     313,     311,     313,     305,     319,     332,     307
     325,     350,     357,     373,     389,     432,     481,     474
     503,     603,     679,     800,    1012,    1281,    1530,    1857
    2241,    2504,    2503,    2203,    1758,    1361,    1057,     854
     787,     764,     735,     767,     864,     987,    1147,    1310
    1400,    1391,    1288,    1030,     851,     699,     589,     496
     429,     397,     378,     368,     342,     332,     317,     288
     296,     271,     274,     303,     300,     281,     278,     281
     296,     267,     257,     260,     268,     257,     235,     229
     246,     215,     240,     278,     259,     225,     269,     244
     240,     241,     257,     235,     216,     238,     246,     248
     247,     256,     255,     243,     244,     222,     215,     235
     214,     201,     225,     245,     247,     231,     254,     235
     225,     234,     250,     231,     234,     232,     247,     260
     257,     243,     237,     241,     246,     249,     230,     226
     238,     233,     230,     221,     225,     251,     265,     252
     236,     234,     240,     245,     239,     236,     241,     243
     236,     227,     225,     231,     230,     222,     229,     237
     228,     217,     239,     238,     222,     214,     231,     212
     231,     260,     230,     236,     204,     212,     217,     211
     221,     247,     202,     221,     198,     234,     226,     198
     222,     218,     221,     239,     234,     255,     241,     213
     225,     215,     247,     218,     213,     203,     237,     212
     195,     235,     207,     233,     231,     204,     219,     210
     234,     240,     231,     232,     215,     237,     247,     233
     222,     228,     232,     210,     207,     234,     226,     212
     214,     217,     221,     223,     203,     192,     223,     232
     223,     222,     217,     213,     211,     230,     232,     217
     213,     226,     232,     213,     206,     219,     230,     224
     212,     226,     232,     216,     241,     249,     226,     222
     214,     222,     227,     234,     234,     215,     220,     221
     236,     224,     214,     226,     224,     222,     216,     203
     238,     233,     234,     223,     200,     211,     220,     236
     185,     241,     243,     241,     228,     210,     208,     225
     210,     228,     211,     203,     208,     223,     198,     245
     243,     248,     233,     215,     219,     227,     211,     216
     210,     240,     198,     199,     226,     205,     210,     220
     212,     220,     233,     223,     224,     206,     211,     206
     203,     199,     201,     223,     230,     213,     218,     216
     216,     228,     203,     199,     208,     216,     215,     205
     221,     225,     206,     207,     221,     209,     219,     231
     217,     205,     202,     204,     203,     223,     236,     219
     217,     217,     214,     211,     193,     207,     226,     225
     205,     205,     225,     211,     199,     206,     221,     225
     221,     222,     217,     222,     241,     250,     227,     233
     221,     229,     243,     229,     236,     234,     218,     211
     214,     233,     197,     214,     223,     216,     239,     240
     223,     233,     199,     237,     214,     205,     221,     203
     198,     220,     241,     222,     228,     217,     231,     227
     219,     213,     217,     216,     231,     222,     221,     205
     205,     217,     236,     202,     202,     226,     228,     231
     242,     225,     226,     230,     210,     204,     224,     217
     210,     226,     217,     209,     204,     221,     229,     230
     240,     231,     216,     221,     214,     215,     227,     222
     219,     224,     223,     225,     229,     229,     227,     220
     223,     222,     220,     216,     222,     210,     199,     215
     216,     208,     230,     232,     235,     228,     241,     248
     216,     228,     211,     234,     215,     225,     213,     216
     231,     221,     225,     227,     227,     248,     237,     221
     216,     213,     241,     230,     226,     242,     215,     230
     223,     237,     211,     211,     229,     195,     225,     244
     205,     239,     222,     214,     202,     198,     221,     225
     217,     215,     228,     194,     209,     228,     215,     203
     213,     208,     217,     237,     225,     231,     229,     249
     240,     231,     236,     238,     224,     213,     202,     220
     233,     230,     210,     214,     234,     240,     242,     241
     243,     232,     229,     236,     255,     259,     239,     241
     232,     242,     247,     234,     244,     231,     253,     259
     265,     279,     278,     262,     280,     294,     282,     302
     282,     293,     290,     296,     295,     289,     286,     328
     315,     309,     335,     385,     361,     356,     371,     381
     423,     458,     461,     505,     543,     634,     726,     846
    1038,    1259,    1588,    2081,    2526,    3168,    3739,    4128
    3991,    3116,    2242,    1719,    1401,    1134,    1044,     904
     872,     870,     992,    1011,    1207,    1397,    1667,    1951
    2159,    2108,    1765,    1368,    1063,     841,     681,     580
     505,     465,     425,     377,     355,     388,     374,     344
     310,     297,     290,     294,     300,     315,     303,     269
     261,     286,     268,     266,     279,     267,     269,     257
     224,     220,     252,     270,     246,     233,     241,     235
     224,     230,     240,     230,     232,     239,     238,     259
     264,     236,     238,     241,     236,     231,     227,     246
     211,     227,     225,     215,     231,     214,     225,     241
     232,     215,     225,     220,     218,     239,     228,     218
     217,     212,     235,     219,     188,     219,     195,     214
     256,     225,     219,     238,     247,     218,     222,     239
     270,     246,     269,     201,     261,     240,     236,     218
     230,     218,     251,     218,     202,     196,     224,     237
     207,     205,     224,     228,     220,     209,     211,     207
     190,     210,     226,     221,     210,     198,     218,     205
     213,     225,     224,     218,     213,     218,     221,     232
     238,     224,     207,     203,     210,     208,     199,     204
     208,     213,     229,     224,     213,     211,     221,     218
     211,     220,     207,     219,     224,     210,     212,     217
     192,     211,     228,     223,     214,     218,     215,     194
     194,     214,     220,     236,     225,     219,     209,     222
     200,     205,     227,     203,     208,     215,     217,     212
     231,     212,     207,     192,     194,     221,     199,     214
     178,     197,     192,     188,     226,     213,     217,     207
     172,     186,     234,     208,     224,     209,     220,     207
     197,     195,     210,     205,     200,     200,     192,     209
     201,     208,     205,     199,     188,     195,     199,     210
     189,     184,     181,     195,     190,     180,     203,     215
     210,     202,     196,     201,     207,     196,     210,     215
     198,     216,     218,     210,     209,     195,     191,     195
     210,     202,     189,     196,     201,     202,     198,     206
     210,     216,     217,     213,     216,     212,     213,     177
     200,     194,     210,     207,     232,     211,     198,     216
     218,     210,     208,     226,     176,     183,     180,     200
     188,     204,     199,     216,     230,     216,     179,     220
     209,     192,     196,     196,     182,     210,     199,     191
     196,     212,     198,     211,     204,     217,     179,     201
     188,     233,     210,     183,     200,     191,     190,     194
     203,     200,     193,     206,     187,     194,     202,     218
     235,     207,     193,     190,     185,     196,     208,     200
     203,     192,     200,     210,     213,     206,     195,     204
     215,     218,     205,     212,     225,     213,     214,     219
     202,     200,     201,     192,     197,     210,     214,     217
     217,     209,     225,     210,     196,     204,     200,     199
     196,     196,     205,     204,     203,     200,     197,     209
     217,     216,     193,     184,     185,     181,     198,     222
     187,     217,     208,     227,     195,     196,     217,     200
     200,     195,     202,     192,     225,     214,     199,     191
     202,     174,     219,     221,     217,     196,     210,     198
     198,     200,     201,     189,     187,     171,     224,     199
     191,     181,     203,     208,     214,     199,     174,     190
     201,     199,     194,     189,     207,     199,     206,     200
     195,     204,     190,     177,     189,     181,     210,     221
     191,     183,     201,     220,     207,     200,     206,     210
     198,     177,     185,     206,     219,     215,     200,     198
     203,     220,     222,     201,     196,     196,     204,     202
     200,     194,     197,     193,     187,     196,     210,     207
     197,     215,     213,     196,     204,     194,     206,     183
     198,     199,     206,     199,     169,     202,     189,     190
     194,     216,     204,     200,     215,     218,     213,     195
     196,     192,     202,     188,     181,     206,     234,     185
     206,     182,     194,     188,     213,     194,     183,     188
     192,     198,     187,     188,     185,     193,     205,     207
     197,     178,     183,     195,     201,     204,     197,     199
     184,     179,     207,     206,     196,     209,     195,     190
     192,     201,     225,     241,     225,     208,     214,     223
     216,     221,     224,     205,     210,     219,     198,     198
     201,     204,     208,     199,     196,     190,     181,     185
     193,     188,     191,     194,     200,     200,     201,     183
     197,     203,     183,     177,     173,     188,     183,     189
     184,     181,     199,     194,     202,     200,     193,     214
     203,     209,     191,     211,     213,     186,     208,     202
     194,     201,     225,     223,     217,     198,     207,     200
     190,     198,     204,     187,     187,     213,     204,     215
     204,     210,     185,     211,     207,     202,     226,     202
     190,     225,     202,     220,     188,     201,     213,     219
     214,     214,     220,     216,     199,     207,     226,     191
     195,     202,     192,     191,     198,     199,     205,     214
     209,     214,     222,     212,     203,     203,     210,     220
     215,     197,     191,     198,     194,     193,     207,     211
     194,     192,     208,     208,     208,     205,     204,     207
     210,     211,     198,     198,     200,     201,     202,     197
     213,     212,     195,     203,     211,     197,     218,     201
     211,     206,     209,     228,     212,     211,     200,     203
     199,     200,     187,     192,     208,     218,     191,     212
     229,     195,     183,     198,     196,     206,     192,     205
     232,     201,     214,     225,     213,     204,     217,     199
     211,     232,     197,     207,     229,     197,     202,     210
     233,     214,     186,     210,     197,     190,     187,     194
     203,     221,     218,     194,     193,     181,     198,     218
     223,     201,     184,     195,     195,     185,     188,     197
     197,     205,     214,     211,     191,     199,     198,     192
     209,     221,     209,     194,     190,     187,     184,     186
     198,     199,     194,     192,     189,     201,     203,     212
     204,     218,     215,     202,     188,     188,     182,     183
     201,     204,     220,     208,     207,     196,     192,     213
     212,     201,     213,     214,     212,     212,     201,     222
     192,     204,     215,     227,     215,     206,     196,     220
     213,     201,     210,     207,     199,     212,     229,     196
     198,     182,     233,     212,     229,     208,     242,     232
     214,     209,     207,     218,     220,     228,     222,     211
     215,     238,     262,     225,     222,     206,     219,     208
     203,     212,     222,     252,     231,     215,     221,     216
     220,     219,     235,     258,     238,     245,     249,     258
     258,     262,     268,     260,     245,     252,     253,     259
     275,     267,     270,     284,     286,     287,     296,     299
     299,     288,     314,     324,     323,     314,     312,     323
     356,     353,     351,     376,     388,     413,     461,     488
     516,     528,     567,     614,     695,     729,     877,    1027
    1225,    1482,    1810,    2280,    2795,    3505,    4244,    4728
    4741,    4333,    3552,    2770,    2007,    1669,    1328,    1129
    1047,     919,     899,     878,     930,    1041,    1079,    1214
    1289,    1671,    1980,    2178,    2331,    2434,    2318,    2011
    1591,    1279,    1002,     866,     699,     637,     550,     496
     454,     428,     398,     399,     403,     342,     351,     353
     335,     311,     292,     281,     278,     286,     275,     270
     271,     263,     266,     272,     278,     257,     254,     242
     233,     235,     243,     250,     242,     251,     246,     231
     239,     241,     234,     214,     200,     228,     238,     228
     220,     207,     222,     238,     231,     233,     218,     231
     227,     219,     193,     222,     211,     210,     207,     201
     216,     235,     224,     199,     204,     204,     236,     216
     211,     197,     167,     197,     201,     191,     210,     236
     215,     213,     182,     224,     215,     226,     200,     216
     194,     219,     209,     239,     248,     205,     207,     222
     200,     201,     189,     185,     198,     198,     216,     186
     212,     215,     216,     223,     219,     207,     211,     222
     207,     187,     200,     206,     184,     200,     206,     197
     209,     198,     198,     202,     211,     212,     202,     214
     217,     206,     190,     201,     207,     192,     191,     185
     174,     178,     197,     214,     211,     214,     204,     193
     213,     208,     195,     207,     213,     185,     180,     195
     183,     197,     215,     210,     201,     209,     200,     197
     207,     203,     191,     191,     197,     204,     200,     183
     181,     193,     197,     212,     169,     193,     198,     206
     174,     205,     200,     198,     217,     185,     187,     210
     224,     201,     192,     196,     193,     201,     201,     199
     195,     204,     174,     212,     212,     191,     199,     199
     202,     182,     178,     191,     202,     166,     188,     198
     207,     213,     222,     223,     206,     213,     192,     206
     200,     200,     190,     197,     202,     195,     200,     204
     196,     209,     211,     213,     208,     203,     211,     211
     203,     204,     208,     204,     203,     217,     209,     190
     190,     194,     210,     211,     193,     183,     196,     191
     188,     194,     197,     225,     216,     185,     204,     205
     211,     213,     199,     203,     197,     184,     199,     195
     178,     209,     211,     192,     191,     200,     217,     172
     193,     210,     206,     197,     206,     196,     178,     188
     195,     181,     178,     210,     193,     189,     174,     194
     193,     196,     190,     197,     227,     184,     212,     208
     201,     184,     178,     187,     227,     194,     212,     183
     209,     193,     220,     222,     197,     222,     215,     208
     195,     188,     205,     203,     201,     205,     191,     205
     201,     196,     205,     197,     206,     210,     190,     193
     210,     195,     210,     221,     210,     188,     184,     191
     193,     215,     217,     201,     203,     199,     190,     183
     192,     206,     202,     204,     200,     198,     196,     191
     191,     196,     203,     203,     186,     210,     204,     191
     198,     202,     196,     202,     210,     213,     191,     207
     187,     211,     217,     189,     176,     211,     216,     193
     189,     193,     196,     223,     199,     215,     186,     180
     211,     215,     221,     199,     191,     174,     194,     175
     220,     217,     192,     189,     192,     187,     205,     187
     176,     191,     219,     216,     209,     208,     188,     193
     199,     195,     184,     196,     189,     193,     182,     183
     210,     207,     193,     199,     202,     198,     196,     191
     186,     203,     209,     199,     212,     206,     190,     209
     212,     200,     199,     200,     206,     207,     195,     195
     202,     211,     215,     193,     196,     213,     206,     196
     214,     233,     211,     204,     241,     242,     211,     214
     222,     210,     213,     232,     217,     221,     226,     226
     216,     224,     215,     227,     235,     260,     255,     240
     244,     235,     262,     252,     234,     272,     298,     241
     244,     245,     250,     273,     297,     278,     301,     321
     311,     341,     307,     362,     377,     365,     394,     449
     447,     495,     542,     668,     763,     866,     973,    1239
    1527,    1833,    2129,    2515,    2678,    2616,    2289,    1799
    1503,    1226,    1005,     847,     760,     674,     622,     580
     531,     539,     545,     567,     593,     636,     708,     824
     934,    1095,    1231,    1339,    1396,    1371,    1200,    1035
     911,     764,     640,     555,     493,     447,     407,     374
     358,     337,     312,     298,     297,     285,     267,     248
     264,     253,     243,     265,     250,     224,     240,     239
     232,     228,     238,     249,     258,     225,     218,     219
     220,     225,     204,     207,     209,     221,     200,     223
     213,     213,     196,     224,     213,     196,     207,     212
     175,     194,     191,     203,     195,     182,     212,     208
     226,     195,     226,     202,     185,     202,     198,     187
     194,     196,     185,     209,     203,     188,     201,     206
     196,     189,     189,     220,     197,     178,     187,     175
     195,     194,     200,     191,     185,     194,     196,     189
     183,     203,     198,     191,     181,     183,     199,     210
     205,     187,     183,     175,     170,     171,     187,     204
     197,     198,     200,     202,     213,     221,     216,     202
     209,     213,     194,     186,     179,     191,     186,     182
     178,     182,     195,     194,     200,     195,     178,     184
     199,     185,     176,     185,     196,     189,     200,     212
     195,     198,     183,     195,     195,     187,     180,     196
     181,     194,     217,     193,     194,     183,     177,     171
     183,     176,     186,     181,     189,     175,     190,     166
     184,     184,     186,     160,     187,     167,     183,     189
     184,     221,     202,     201,     214,     191,     203,     201
     195,     206,     197,     188,     181,     192,     184,     193
     188,     188,     192,     193,     191,     191,     193,     185
     188,     223,     218,     206,     195,     174,     177,     194
     189,     185,     187,     175,     182,     189,     172,     165
     171,     186,     182,     168,     172,     168,     177,     187
     190,     194,     178,     169,     190,     191,     182,     193
     189,     185,     191,     208,     220,     193,     184,     196
     192,     178,     182,     196,     198,     183,     190,     179
     200,     206,     162,     181,     187,     201,     203,     179
     192,     189,     164,     190,     206,     178,     209,     165
     191,     188,     217,     173,     186,     197,     175,     190
     184,     185,     198,     182,     176,     178,     187,     168
     182,     178,     184,     178,     193,     200,     193,     185
     175,     212,     192,     178,     174,     186,     171,     168
     184,     184,     195,     199,     186,     180,     180,     180
     178,     179,     171,     163,     166,     196,     207,     182
     177,     172,     170,     186,     181,     170,     169,     173
     184,     195,     193,     175,     175,     180,     190,     181
     172,     187,     170,     186,     181,     202,     191,     194
     207,     178,     171,     183,     184,     168,     188,     184
     189,     201,     199,     198,     205,     207,     167,     184
     202,     181,     186,     184,     167,     156,     174,     165
     196,     195,     191,     189,     196,     161,     184,     189
     178,     192,     199,     187,     174,     178,     206,     190
     181,     182,     167,     167,     173,     182,     192,     177
     186,     178,     186,     189,     190,     187,     177,     176
     173,     184,     205,     186,     185,     203,     199,     191
     192,     199,     175,     180,     180,     166,     168,     172
     191,     196,     178,     177,     193,     190,     183,     181
     176,     180,     174,     168,     178,     184,     174,     187
     206,     177,     167,     184,     206,     195,     184,     163
     170,     177,     172,     187,     187,     200,     179,     158
     165,     186,     179,     185,     166,     172,     179,     185
     199,     184,     189,     175,     183,     171,     195,     179
     175,     196,     181,     187,     188,     186,     159,     193
     196,     166,     175,     184,     182,     188,     196,     213
     184,     178,     215,     174,     169,     158,     173,     168
     159,     171,     185,     192,     182,     189,     211,     192
     167,     189,     178,     187,     184,     196,     184,     169
     166,     173,     186,     186,     189,     195,     187,     174
     174,     182,     180,     185,     200,     185,     187,     199
     199,     198,     180,     197,     206,     181,     178,     189
     196,     182,     173,     172,     181,     189,     188,     181
     174,     167,     167,     179,     190,     188,     182,     159
     173,     169,     177,     185,     172,     197,     187,     189
     186,     193,     196,     185,     163,     177,     173,     197
     204,     183,     194,     192,     177,     188,     164,     196
     169,     202,     187,     197,     192,     183,     165,     191
     178,     210,     208,     190,     185,     180,     182,     185
     192,     189,     211,     167,     172,     177,     201,     205
     198,     183,     168,     178,     177,     189,     164,     174
     181,     169,     164,     176,     200,     194,     185,     179
     168,     170,     180,     176,     179,     184,     183,     205
     206,     183,     173,     167,     185,     216,     201,     187
     196,     184,     185,     196,     187,     178,     170,     172
     184,     194,     196,     185,     190,     188,     185,     187
     175,     172,     181,     167,     175,     178,     193,     193
     204,     208,     195,     189,     194,     189,     186,     192
     185,     173,     195,     213,     157,     161,     184,     177
     195,     189,     178,     173,     188,     172,     193,     181
     178,     177,     193,     169,     196,     177,     183,     207
     203,     169,     165,     172,     181,     207,     199,     167
     148,     149,     176,     183,     189,     199,     201,     191
     185,     182,     186,     184,     156,     154,     164,     182
     181,     172,     186,     185,     184,     175,     161,     170
     193,     186,     187,     179,     183,     205,     206,     187
     176,     172,     176,     185,     200,     207,     186,     175
     182,     189,     187,     185,     197,     188,     168,     162
     166,     174,     179,     177,     187,     195,     181,     172
     175,     177,     180,     203,     187,     183,     188,     179
     187,     185,     170,     204,     210,     187,     179,     203
     205,     198,     159,     180,     196,     177,     192,     199
     202,     181,     173,     172,     177,     190,     191,     179
     184,     181,     195,     193,     184,     173,     178,     208
     217,     196,     166,     193,     188,     187,     168,     189
     174,     176,     190,     179,     176,     185,     188,     193
     205,     202,     174,     179,     191,     185,     176,     200
     223,     213,     194,     186,     193,     183,     196,     207
     210,     191,     184,     182,     187,     194,     193,     196
     196,     200,     194,     189,     198,     190,     189,     202
     198,     191,     206,     215,     194,     206,     207,     201
     194,     198,     204,     218,     218,     193,     208,     216
     210,     210,     210,     211,     212,     171,     192,     212
     224,     217,     226,     226,     238,     209,     230,     236
     220,     242,     228,     268,     265,     245,     250,     268
     269,     274,     289,     281,     351,     319,     335,     308
     370,     346,     409,     440,     506,     592,     651,     690
     877,    1079,    1298,    1486,    1616,    1618,    1526,    1336
    1098,     898,     789,     689,     603,     535,     482,     460
     438,     382,     395,     379,     392,     404,     382,     365
     356,     388,     436,     464,     468,     529,     631,     712
     814,     846,     874,     898,     836,     712,     611,     573
     506,     435,     401,     366,     345,     325,     286,     286
     295,     276,     266,     248,     251,     251,     252,     256
     232,     231,     223,     210,     212,     220,     216,     231
     209,     196,     188,     193,     213,     200,     212,     230
     201,     202,     226,     192,     221,     200,     187,     183
     193,     179,     209,     189,     191,     200,     205,     202
     198,     209,     210,     195,     181,     220,     211,     194
     197,     185,     205,     212,     205,     210,     213,     197
     197,     176,     194,     192,     195,     202,     211,     208
     188,     194,     214,     211,     215,     204,     179,     200
     197,     183,     187,     202,     211,     202,     203,     216
     218,     209,     193,     192,     201,     206,     196,     190
     188,     187,     190,     194,     210,     205,     189,     191
     196,     200,     198,     204,     203,     192,     199,     199
     201,     195,     200,     198,     193,     197,     196,     185
     182,     199,     210,     203,     195,     197,     203,     191
     204,     199,     190,     185,     196,     188,     175,     200
     195,     185,     193,     185,     198,     209,     188,     203
     203,     196,     187,     174,     181,     186,     229,     201
     191,     156,     200,     188,     192,     210,     190,     178
     195,     203,     207,     180,     177,     201,     199,     186
     200,     190,     177,     187,     187,     194,     192,     201
     190,     191,     198,     186,     176,     179,     195,     180
     180,     195,     212,     205,     211,     193,     195,     208
     192,     174,     192,     206,     192,     189,     196,     195
     181,     175,     179,     175,     181,     191,     183,     188
     196,     190,     200,     220,     205,     193,     189,     206
     221,     203,     202,     195,     181,     176,     176,     192
     225,     225,     206,     196,     195,     193,     178,     197
     183,     198,     183,     185,     200,     206,     189,     180
     212,     171,     181,     191,     214,     186,     179,     186
     187,     196,     197,     223,     211,     195,     182,     187
     203,     198,     204,     190,     193,     197,     208,     224
     170,     181,     181,     217,     212,     187,     201,     193
     183,     178,     183,     190,     192,     186,     178,     191
     208,     189,     189,     202,     203,     204,     191,     182
     203,     205,     194,     200,     200,     189,     188,     201
     218,     202,     180,     189,     196,     194,     200,     203
     198,     191,     199,     208,     193,     197,     199,     201
     203,     201,     201,     182,     204,     201,     196,     207
     199,     185,     183,     184,     207,     186,     179,     189
     201,     184,     188,     207,     220,     170,     174,     187
     210,     197,     174,     198,     206,     185,     183,     182
     185,     210,     183,     192,     169,     180,     201,     199
     186,     205,     205,     189,     196,     213,     198,     190
     200,     216,     214,     180,     205,     205,     179,     198
     210,     205,     211,     207,     195,     200,     197,     193
     206,     200,     201,     204,     184,     180,     201,     201
     214,     212,     191,     193,     191,     190,     191,     198
     201,     192,     187,     190,     194,     191,     198,     208
     208,     206,     202,     201,     194,     196,     207,     207
     216,     204,     195,     211,     206,     190,     205,     206
     205,     194,     197,     191,     194,     210,     224,     195
     206,     215,     214,     233,     214,     215,     195,     211
     207,     194,     205,     218,     193,     195,     228,     230
     213,     208,     235,     252,     206,     238,     201,     196
     196,     209,     205,     226,     189,     205,     212,     209
     203,     214,     229,     195,     209,     252,     211,     220
     242,     230,     226,     238,     248,     241,     219,     220
     208,     262,     240,     210,     231,     235,     229,     230
     223,     211,     243,     238,     236,     250,     243,     244
     264,     275,     249,     251,     260,     251,     261,     264
     258,     266,     278,     279,     262,     261,     278,     281
     285,     294,     298,     322,     336,     326,     326,     324
     338,     381,     421,     441,     454,     484,     508,     511
     551,     632,     665,     755,     866,     989,    1139,    1322
    1584,    1914,    2286,    2538,    2722,    2804,    2618,    2302
    2044,    1677,    1457,    1176,    1022,     953,     856,     758
     660,     616,     575,     610,     552,     528,     504,     497
     501,     511,     545,     550,     579,     578,     688,     699
     783,     885,     990,    1076,    1228,    1308,    1488,    1500
    1408,    1309,    1150,    1003,     890,     739,     682,     629
     543,     495,     465,     440,     406,     369,     336,     326
     347,     338,     340,     312,     279,     274,     254,     255
     271,     276,     268,     280,     272,     259,     254,     256
     268,     270,     262,     251,     242,     255,     265,     247
     235,     247,     255,     231,     213,     222,     226,     234
     228,     228,     227,     234,     229,     223,     208,     214
     229,     236,     225,     206,     206,     219,     226,     230
     216,     209,     210,     226,     225,     204,     224,     198
     198,     232,     218,     217,     216,     211,     216,     217
     206,     201,     220,     206,     219,     237,     219,     220
     214,     213,     207,     204,     209,     197,     207,     213
     221,     216,     212,     237,     225,     228,     193,     224
     221,     218,     209,     199,     207,     217,     195,     187
     213,     235,     223,     208,     202,     199,     196,     198
     196,     226,     216,     210,     208,     207,     205,     207
     219,     219,     210,     214,     213,     211,     196,     196
     209,     214,     211,     199,     211,     216,     212,     222
     221,     213,     211,     209,     202,     196,     200,     200
     194,     197,     195,     210,     210,     223,     210,     184
     193,     194,     208,     201,     208,     190,     182,     193
     195,     187,     216,     231,     186,     214,     200,     200
     212,     218,     194,     183,     187,     196,     225,     215
     196,     196,     209,     222,     185,     195,     206,     200
     210,     196,     185,     196,     201,     188,     197,     211
     189,     231,     189,     207,     233,     219,     192,     185
     200,     199,     202,     200,     201,     195,     194,     192
     185,     193,     199,     195,     204,     206,     200,     212
     214,     197,     201,     206,     203,     209,     204,     199
     201,     197,     226,     223,     191,     197,     194,     191
     187,     193,     205,     189,     196,     216,     217,     206
     200,     209,     204,     194,     206,     201,     208,     216
     196,     192,     208,     210,     187,     177,     173,     187
     199,     209,     199,     189,     207,     215,     196,     189
     192,     200,     193,     205,     210,     211,     186,     210
     215,     195,     184,     210,     208,     205,     207,     203
     188,     214,     200,     184,     207,     210,     202,     205
     210,     214,     202,     189,     202,     195,     185,     185
     201,     198,     188,     189,     179,     210,     202,     203
     205,     192,     213,     213,     197,     200,     197,     186
     190,     198,     208,     224,     221,     198,     207,     205
     203,     214,     205,     206,     215,     199,     191,     194
     204,     209,     210,     214,     210,     196,     193,     206
     204,     211,     220,     215,     200,     193,     213,     211
     209,     199,     177,     206,     206,     196,     201,     199
     194,     205,     212,     210,     198,     190,     211,     192
     197,     196,     197,     213,     191,     215,     181,     206
     212,     212,     202,     228,     221,     180,     206,     172
     210,     227,     229,     206,     225,     196,     219,     211
     211,     216,     201,     200,     186,     200,     225,     211
     188,     201,     200,     196,     179,     183,     204,     230
     196,     210,     207,     204,     195,     197,     206,     212
     208,     205,     228,     233,     199,     190,     202,     201
     206,     193,     220,     206,     196,     210,     195,     197
     220,     217,     197,     208,     213,     196,     199,     206
     195,     193,     198,     200,     208,     211,     215,     217
     208,     201,     199,     213,     208,     197,     212,     209
     209,     205,     190,     210,     203,     204,     195,     206
     205,     204,     207,     189,     188,     201,     195,     191
     199,     194,     195,     190,     204,     212,     210,     203
     206,     227,     205,     189,     189,     182,     194,     204
     199,     198,     207,     189,     190,     210,     206,     198
     211,     214,     212,     200,     201,     211,     202,     192
     205,     218,     235,     232,     209,     193,     185,     179
     198,     186,     197,     224,     214,     193,     189,     202
     184,     201,     195,     187,     187,     180,     200,     206
     196,     202,     198,     196,     211,     218,     222,     211
     199,     191,     205,     220,     215,     215,     204,     214
     228,     207,     189,     201,     202,     177,     204,     241
     218,     198,     191,     201,     210,     198,     200,     211
     226,     207,     198,     186,     197,     207,     196,     195
     194,     202,     216,     218,     204,     214,     205,     209
     213,     214,     207,     219,     213,     231,     187,     211
     184,     188,     186,     218,     217,     214,     198,     201
     207,     194,     223,     217,     224,     193,     216,     236
     205,     208,     211,     203,     193,     193,     223,     208
     213,     229,     211,     226,     210,     206,     207,     202
     214,     216,     219,     219,     212,     226,     216,     203
     196,     182,     185,     209,     226,     210,     203,     194
     214,     231,     223,     216,     218,     224,     209,     190
     201,     213,     200,     180,     194,     214,     200,     197
     205,     205,     199,     204,     219,     212,     213,     216
     214,     210,     224,     207,     193,     202,     213,     219
     207,     216,     213,     202,     201,     203,     202,     209
     219,     234,     212,     210,     224,     239,     216,     210
     211,     198,     199,     217,     191,     184,     209,     217
     229,     209,     217,     197,     216,     230,     215,     231
     204,     186,     202,     219,     207,     233,     201,     193
     194,     198,     208,     190,     201,     195,     183,     202
     233,     210,     218,     222,     226,     225,     228,     205
     199,     197,     205,     208,     217,     217,     220,     236
     229,     205,     201,     222,     217,     201,     218,     233
     215,     202,     217,     211,     191,     193,     200,     214
     213,     199,     213,     224,     244,     258,     231,     214
     200,     198,     206,     205,     205,     216,     220,     228
     235,     225,     207,     206,     195,     207,     223,     216
     256,     237,     209,     192,     214,     234,     216,     230
     238,     226,     214,     215,     215,     214,     218,     232
     206,     223,     183,     211,     215,     227,     196,     213
     205,     222,     216,     216,     206,     206,     224,     205
     221,     232,     221,     218,     217,     210,     224,     222
     212,     212,     217,     190,     241,     239,     219,     209
     195,     190,     207,     212,     215,     211,     203,     205
     216,     217,     214,     207,     217,     227,     211,     211
     203,     198,     208,     200,     206,     214,     196,     203
     216,     231,     240,     232,     239,     239,     229,     215
     201,     206,     218,     225,     219,     222,     234,     235
     224,     215,     218,     207,     243,     229,     209,     225
     229,     229,     244,     242,     230,     211,     203,     225
     234,     224,     204,     210,     234,     254,     236,     208
     221,     234,     243,     230,     207,     247,     260,     236
     185,     215,     226,     221,     234,     261,     258,     267
     221,     218,     204,     238,     216,     227,     235,     232
     239,     238,     245,     239,     242,     228,     233,     240
     235,     227,     230,     213,     225,     238,     256,     269
     238,     238,     251,     241,     252,     241,     227,     225
     264,     272,     260,     257,     260,     258,     264,     257
     245,     251,     266,     276,     270,     247,     234,     264
     268,     250,     258,     269,     295,     301,     299,     295
     272,     260,     284,     306,     287,     261,     267,     276
     284,     301,     299,     275,     302,     310,     317,     318
     318,     340,     330,     330,     368,     381,     383,     391
     411,     421,     429,     421,     447,     450,     487,     476
     503,     580,     635,     651,     724,     766,     861,     963
    1102,    1185,    1304,    1499,    1734,    1913,    2026,    2202
    2208,    2101,    2040,    1883,    1674,    1463,    1344,    1210
    1053,     951,     858,     806,     753,     671,     586,     612
     557,     535,     525,     518,     497,     454,     465,     461
     475,     464,     491,     482,     498,     487,     522,     552
     555,     583,     588,     639,     683,     733,     803,     915
     994,    1053,    1132,    1167,    1205,    1199,    1160,    1092
    1022,     949,     852,     800,     734,     654,     622,     616
     545,     503,     484,     445,     425,     402,     382,     367
     344,     346,     356,     359,     328,     332,     279,     305
     303,     323,     331,     297,     297,     298,     297,     308
     277,     270,     274,     281,     246,     260,     284,     269
     250,     281,     256,     263,     256,     244,     234,     293
     250,     249,     274,     274,     231,     254,     272,     296
     287,     252,     274,     259,     263,     271,     252,     270
     274,     249,     238,     242,     263,     239,     253,     261
     279,     247,     244,     216,     219,     238,     233,     233
     243,     242,     254,     239,     233,     238,     242,     247
     239,     241,     250,     270,     254,     242,     257,     237
     219,     228,     230,     232,     238,     230,     249,     262
     231,     211,     235,     257,     237,     224,     221,     226
     228,     234,     249,     259,     234,     227,     215,     233
     244,     238,     251,     256,     231,     229,     234,     224
     222,     215,     237,     246,     245,     228,     251,     218
     238,     245,     240,     240,     229,     233,     240,     244
     215,     230,     236,     240,     237,     238,     246,     257
     241,     199,     212,     235,     239,     214,     212,     228
     256,     236,     219,     208,     204,     206,     217,     217
     223,     232,     233,     235,     245,     239,     231,     248
     260,     251,     230,     239,     230,     228,     239,     232
     233,     238,     233,     241,     226,     215,     198,     202
     226,     222,     227,     238,     249,     234,     212,     218
     221,     223,     228,     232,     229,     224,     226,     250
     228,     231,     229,     212,     227,     227,     225,     234
     226,     228,     248,     229,     240,     242,     233,     207
     221,     237,     243,     228,     235,     220,     205,     248
     251,     220,     211,     209,     206,     228,     236,     226
     227,     216,     223,     235,     224,     217,     221,     215
     206,     224,     244,     220,     221,     217,     253,     229
     259,     223,     232,     257,     245,     229,     225,     250
     225,     242,     225,     231,     228,     236,     225,     227
     231,     224,     229,     231,     252,     226,     229,     238
     244,     226,     227,     219,     218,     224,     218,     223
     227,     231,     247,     243,     223,     214,     211,     212
     224,     225,     238,     241,     225,     233,     227,     225
     231,     234,     239,     250,     253,     262,     280,     266
     248,     232,     248,     220,     220,     226,     240,     251
     224,     237,     237,     213,     207,     206,     214,     234
     263,     230,     221,     231,     237,     243,     232,     224
     229,     214,     225,     220,     206,     227,     253,     224
     270,     231,     215,     239,     258,     225,     234,     241
     255,     258,     269,     249,     230,     245,     225,     233
     229,     204,     219,     245,     248,     258,     241,     261
     275,     269,     246,     214,     221,     237,     241,     224
     250,     268,     223,     222,     238,     229,     221,     212
     216,     222,     244,     242,     224,     231,     234,     246
     252,     232,     207,     204,     227,     236,     234,     228
     224,     239,     252,     249,     238,     237,     221,     213
     225,     234,     246,     251,     237,     233,     223,     220
     239,     236,     237,     258,     254,     259,     275,     235
     235,     236,     218,     242,     244,     235,     244,     229
     227,     228,     241,     216,     226,     219,     265,     276
     225,     227,     229,     209,     220,     226,     248,     241
     231,     228,     247,     236,     270,     220,     233,     208
     217,     240,     244,     262,     240,     238,     242,     240
     243,     232,     225,     249,     224,     224,     226,     232
     260,     241,     243,     247,     232,     239,     257,     248
     232,     236,     262,     252,     244,     236,     210,     213
     232,     230,     230,     229,     221,     223,     222,     227
     236,     224,     233,     243,     218,     215,     241,     247
     232,     246,     265,     259,     235,     249,     267,     233
     225,     242,     237,     230,     235,     242,     240,     227
     241,     238,     233,     231,     255,     243,     256,     220
     228,     253,     248,     253,     217,     219,     224,     235
     247,     246,     229,     239,     262,     243,     256,     229
     255,     242,     266,     220,     237,     258,     245,     216
     256,     259,     249,     266,     285,     236,     240,     215
     211,     230,     247,     269,     260,     256,     270,     227
     259,     284,     251,     238,     268,     264,     236,     243
     248,     257,     257,     250,     268,     257,     242,     233
     252,     265,     254,     256,     250,     255,     252,     261
     257,     243,     250,     266,     275,     278,     272,     257
     264,     270,     271,     263,     255,     277,     286,     286
     278,     275,     264,     270,     286,     278,     257,     270
     254,     260,     257,     284,     270,     284,     311,     290
     289,     284,     267,     262,     285,     306,     288,     282
     277,     268,     271,     298,     321,     298,     281,     290
     305,     311,     299,     316,     325,     310,     308,     354
     351,     370,     393,     382,     358,     429,     404,     388
     415,     491,     513,     537,     533,     587,     616,     677
     740,     796,     989,    1074,    1124,    1185,    1234,    1332
    1268,    1186,    1120,    1080,    1022,     975,     829,/
