SampleIdent,,/
Title1,Configuration=Conf.Stage for flat samples/holders, Owner=User-1, Creation date=11/4/2011 2:21:53 PM,/
Title2,Goniometer=Theta/Theta; Minimum step size 2Theta:0.0001; Minimum step size Omega:0.0001,/
DiffrType,0000000011114271,/
DiffrNumber,  0,/
Anode,Cu,/
LabdaAlpha1, 1.54060,/
LabdaAlpha2, 1.54443,/
RatioAlpha21, 0.50000,/
DivergenceSlit,Fixed, 0.22,/
ReceivingSlit, 0.10,/
MonochromatorUsed,NO,/
GeneratorVoltage,  40,/
TubeCurrent,  40,/
FileDateTime, 10/12/2016 1:14:39 PM,/
DataAngleRange,  20.0158, 136.9898,/
ScanStepSize,   0.013,/
ScanType,Continuous,/
ScanStepTime,  58.40,/
RawScan
    1132,    1095,    1116,    1104,    1188,    1114,    1118,    1085
    1134,    1144,    1124,    1112,    1081,    1067,    1138,    1117
    1130,    1170,    1167,    1157,    1178,    1166,    1110,    1123
    1113,    1174,    1141,    1153,    1141,    1162,    1118,    1113
    1135,    1147,    1119,    1088,    1090,    1077,    1079,    1098
    1096,    1102,    1097,    1064,    1065,    1060,    1082,    1096
    1082,    1094,    1077,    1049,    1033,    1043,    1055,    1064
    1096,    1072,    1045,    1027,     996,    1020,    1066,    1077
    1085,    1093,    1080,    1067,    1056,    1077,    1086,    1081
    1058,    1073,    1065,    1047,    1000,    1044,    1044,    1003
    1104,    1066,     984,     948,    1028,    1056,    1055,    1084
    1048,    1074,    1037,    1015,    1004,    1021,    1043,     953
    1054,    1005,     949,     989,    1008,    1055,    1006,    1022
     976,     967,     960,     996,     993,     993,    1049,    1013
     973,     993,     938,    1018,    1002,     978,     938,     958
     947,     987,     999,    1013,    1010,    1015,     998,    1007
     995,     966,     987,     958,     972,    1021,    1014,     982
     981,     973,     956,     915,     911,     929,     948,     969
     973,     965,     941,     928,     945,     944,     930,     952
     973,     995,     971,     920,     930,     966,     966,     938
     937,     924,     941,     942,     959,     929,     905,     924
     904,     909,     946,     926,     904,     923,     957,     964
     962,     917,     949,     915,     905,     909,     908,     976
     971,     972,     946,     988,     956,     982,     974,     907
     934,     958,     924,     909,     913,     858,     909,     892
     850,     874,     896,     865,     858,     827,     862,     873
     899,     945,     878,     949,     899,     865,     907,     898
     886,     912,     886,     849,     861,     896,     890,     835
     837,     830,     831,     827,     877,     841,     855,     879
     894,     909,     895,     876,     870,     867,     858,     844
     835,     860,     818,     811,     870,     878,     859,     839
     833,     842,     842,     834,     835,     836,     854,     852
     850,     851,     820,     802,     787,     822,     847,     883
     868,     839,     827,     830,     833,     806,     814,     797
     804,     794,     798,     840,     844,     827,     873,     841
     803,     846,     853,     772,     799,     825,     817,     785
     811,     787,     834,     811,     811,     841,     791,     817
     795,     807,     820,     729,     797,     800,     819,     759
     776,     780,     786,     832,     790,     825,     771,     795
     834,     759,     795,     777,     802,     721,     763,     800
     789,     803,     760,     764,     739,     786,     801,     825
     780,     756,     745,     751,     768,     768,     761,     797
     794,     744,     726,     780,     758,     760,     800,     791
     753,     798,     787,     769,     797,     787,     771,     780
     784,     781,     763,     752,     757,     756,     766,     779
     763,     748,     764,     758,     757,     756,     762,     778
     783,     770,     755,     717,     717,     763,     745,     727
     764,     743,     738,     727,     732,     722,     720,     727
     721,     741,     748,     749,     733,     725,     752,     770
     744,     797,     747,     731,     706,     749,     756,     673
     755,     702,     716,     739,     774,     783,     720,     775
     800,     768,     711,     774,     745,     744,     721,     790
     761,     794,     799,     803,     787,     782,     784,     799
     761,     722,     708,     733,     742,     734,     711,     703
     707,     723,     734,     679,     722,     757,     750,     744
     740,     770,     728,     733,     729,     701,     730,     760
     768,     753,     725,     712,     703,     718,     702,     704
     756,     734,     711,     719,     721,     746,     718,     691
     729,     735,     713,     675,     672,     707,     718,     653
     716,     712,     729,     749,     750,     736,     726,     717
     731,     777,     795,     743,     722,     710,     718,     687
     711,     672,     709,     701,     709,     721,     667,     707
     698,     679,     730,     670,     682,     719,     708,     733
     678,     688,     693,     696,     699,     716,     702,     727
     708,     665,     681,     693,     712,     684,     644,     660
     652,     667,     708,     735,     701,     715,     680,     661
     685,     662,     676,     716,     693,     664,     680,     716
     708,     701,     667,     696,     736,     720,     720,     729
     730,     719,     703,     693,     720,     760,     809,     851
     861,     888,     950,    1021,    1120,    1260,    1393,    1494
    1653,    1851,    2096,    2455,    2703,    2794,    2774,    2643
    2385,    2148,    2008,    1867,    1648,    1387,    1182,    1040
     912,     864,     819,     753,     764,     780,     784,     765
     742,     736,     699,     699,     696,     674,     705,     689
     691,     682,     674,     641,     690,     655,     638,     657
     626,     683,     656,     658,     631,     655,     678,     634
     619,     659,     646,     639,     643,     689,     646,     639
     652,     671,     692,     690,     678,     679,     670,     664
     674,     652,     656,     655,     656,     665,     645,     661
     655,     637,     665,     640,     647,     655,     675,     664
     677,     660,     664,     670,     672,     667,     674,     711
     694,     669,     683,     683,     704,     733,     776,     807
     803,     844,     894,     896,     829,     745,     729,     719
     682,     643,     650,     670,     657,     650,     626,     612
     633,     619,     628,     643,     646,     647,     644,     629
     624,     638,     644,     667,     652,     630,     624,     627
     614,     630,     649,     660,     649,     660,     649,     655
     647,     635,     671,     652,     650,     621,     618,     637
     642,     637,     651,     599,     604,     629,     596,     585
     600,     654,     627,     589,     618,     630,     594,     616
     671,     668,     631,     605,     606,     660,     607,     624
     605,     611,     600,     621,     623,     595,     592,     601
     594,     624,     611,     601,     612,     620,     621,     615
     634,     636,     613,     597,     604,     609,     605,     608
     613,     604,     602,     587,     575,     610,     625,     596
     589,     606,     598,     581,     587,     582,     577,     587
     590,     611,     621,     618,     592,     591,     579,     584
     596,     589,     602,     591,     611,     592,     585,     579
     583,     586,     621,     616,     550,     588,     608,     612
     576,     585,     655,     630,     573,     641,     630,     577
     616,     565,     612,     637,     649,     610,     629,     656
     652,     688,     712,     730,     823,     846,     813,     893
     891,     861,     870,     870,     901,     841,     866,     859
     831,     877,     904,     890,     872,     880,     866,     873
     832,     868,     916,     916,     912,     900,     913,     875
     894,     873,     853,     889,     893,     917,     904,     895
     899,     905,     884,     881,     930,     930,     936,     938
     920,     953,     934,     927,     983,    1007,    1014,    1018
    1023,     972,     968,    1007,    1051,    1119,    1136,    1133
    1171,    1266,    1305,    1376,    1457,    1544,    1731,    1916
    2138,    2425,    2720,    3090,    3562,    4202,    5088,    6401
    7888,    9998,   12897,   15942,   20062,   25291,   31783,   40739
   51827,   64344,   77679,   83617,   76578,   60806,   48768,   44420
   44068,   44208,   38529,   28353,   18690,   12445,    8791,    6597
    5007,    4084,    3359,    2951,    2503,    2265,    2090,    1913
    1672,    1515,    1437,    1336,    1262,    1198,    1167,    1143
    1112,    1022,    1052,    1050,    1032,     984,     962,     943
     912,     907,     919,     911,     917,     879,     852,     863
     836,     810,     813,     825,     816,     801,     799,     788
     765,     750,     743,     770,     772,     762,     761,     746
     748,     740,     721,     722,     739,     741,     726,     730
     731,     721,     735,     698,     717,     707,     679,     684
     668,     675,     706,     681,     685,     680,     697,     713
     694,     688,     673,     643,     669,     663,     637,     665
     686,     629,     695,     655,     637,     589,     667,     661
     626,     655,     636,     631,     647,     623,     640,     652
     604,     594,     644,     628,     610,     630,     544,     631
     604,     595,     581,     610,     632,     624,     626,     586
     604,     597,     590,     602,     633,     636,     623,     636
     624,     590,     603,     613,     600,     607,     592,     611
     581,     597,     586,     547,     572,     617,     627,     615
     607,     589,     575,     560,     549,     553,     559,     553
     546,     557,     589,     583,     555,     556,     576,     576
     576,     586,     558,     574,     600,     579,     549,     554
     539,     536,     579,     573,     560,     578,     553,     553
     561,     560,     555,     574,     569,     567,     555,     605
     622,     641,     619,     629,     625,     562,     561,     570
     565,     592,     558,     547,     554,     569,     544,     558
     565,     526,     590,     560,     584,     567,     544,     525
     533,     516,     578,     530,     520,     557,     555,     533
     519,     561,     554,     568,     557,     546,     525,     515
     550,     531,     544,     537,     516,     521,     512,     540
     521,     523,     517,     508,     481,     500,     525,     496
     519,     506,     495,     499,     518,     509,     511,     550
     536,     504,     498,     490,     488,     488,     518,     527
     518,     515,     499,     485,     477,     488,     496,     507
     500,     499,     471,     451,     467,     465,     464,     479
     503,     494,     474,     493,     513,     490,     504,     498
     479,     469,     481,     460,     472,     502,     479,     470
     475,     500,     507,     481,     455,     480,     478,     478
     465,     458,     462,     449,     498,     485,     489,     481
     474,     469,     479,     458,     488,     475,     453,     469
     478,     446,     478,     455,     462,     438,     434,     468
     459,     467,     470,     444,     432,     442,     456,     458
     463,     450,     427,     454,     448,     441,     434,     445
     477,     447,     436,     442,     453,     454,     475,     481
     477,     459,     480,     477,     500,     499,     476,     475
     457,     433,     423,     433,     453,     463,     444,     424
     446,     449,     441,     440,     416,     444,     450,     422
     412,     429,     420,     430,     443,     446,     457,     430
     428,     404,     398,     407,     429,     490,     484,     464
     449,     439,     430,     425,     429,     432,     435,     437
     433,     453,     421,     419,     446,     434,     444,     421
     431,     399,     432,     428,     416,     435,     413,     407
     416,     462,     425,     393,     408,     400,     427,     404
     438,     404,     391,     403,     421,     382,     388,     428
     423,     384,     411,     441,     411,     385,     405,     411
     401,     383,     421,     451,     438,     414,     425,     435
     443,     444,     419,     408,     422,     415,     405,     397
     410,     412,     390,     390,     405,     409,     412,     412
     396,     376,     387,     405,     400,     403,     399,     379
     377,     403,     402,     387,     405,     384,     364,     395
     422,     407,     368,     396,     371,     378,     396,     369
     357,     385,     420,     411,     408,     412,     390,     363
     372,     385,     358,     388,     389,     384,     381,     380
     372,     389,     374,     390,     401,     411,     376,     390
     406,     398,     368,     399,     444,     420,     417,     397
     438,     407,     415,     386,     416,     404,     402,     374
     394,     374,     383,     353,     400,     385,     367,     374
     393,     350,     357,     361,     342,     368,     382,     361
     376,     394,     371,     362,     399,     408,     364,     351
     379,     375,     387,     377,     376,     381,     399,     388
     406,     394,     362,     362,     369,     382,     367,     377
     411,     394,     361,     364,     378,     373,     373,     372
     354,     378,     406,     385,     377,     332,     363,     374
     365,     376,     365,     331,     356,     378,     386,     364
     361,     383,     402,     384,     353,     372,     408,     388
     382,     351,     369,     359,     366,     374,     406,     378
     366,     377,     396,     374,     392,     364,     398,     375
     375,     377,     365,     375,     397,     374,     338,     361
     350,     338,     314,     375,     379,     353,     364,     346
     337,     355,     343,     358,     330,     363,     376,     373
     365,     376,     358,     351,     365,     349,     339,     350
     323,     319,     340,     361,     367,     340,     364,     368
     362,     360,     345,     346,     336,     338,     349,     348
     342,     347,     369,     354,     343,     355,     331,     328
     363,     368,     367,     383,     374,     351,     345,     341
     341,     355,     353,     345,     339,     364,     348,     374
     370,     341,     333,     374,     352,     356,     358,     338
     345,     365,     350,     370,     380,     358,     364,     377
     375,     382,     374,     374,     390,     374,     361,     364
     361,     340,     352,     338,     334,     368,     331,     336
     348,     325,     305,     343,     350,     346,     328,     347
     332,     351,     334,     347,     355,     347,     345,     318
     326,     315,     329,     333,     330,     346,     352,     334
     334,     322,     329,     338,     346,     358,     340,     319
     325,     315,     325,     336,     327,     322,     342,     344
     344,     335,     310,     310,     343,     345,     336,     340
     321,     306,     295,     319,     354,     343,     347,     335
     303,     308,     319,     338,     338,     331,     333,     324
     316,     314,     306,     318,     333,     334,     311,     318
     295,     310,     337,     322,     332,     316,     313,     302
     306,     308,     317,     304,     291,     311,     301,     305
     305,     345,     305,     322,     302,     359,     300,     306
     329,     313,     273,     346,     313,     323,     361,     338
     306,     315,     307,     298,     347,     312,     326,     307
     323,     334,     293,     296,     336,     306,     298,     311
     298,     307,     305,     313,     306,     301,     320,     319
     302,     317,     323,     307,     294,     297,     316,     324
     333,     339,     336,     293,     267,     277,     299,     313
     323,     322,     301,     292,     292,     310,     315,     305
     328,     329,     312,     318,     318,     312,     307,     304
     296,     308,     301,     318,     332,     349,     322,     316
     309,     303,     305,     287,     285,     314,     302,     301
     287,     306,     291,     299,     299,     316,     302,     325
     316,     316,     318,     287,     301,     302,     299,     325
     295,     319,     312,     304,     295,     298,     348,     305
     310,     328,     294,     329,     351,     300,     334,     338
     346,     357,     366,     349,     371,     388,     379,     384
     385,     396,     405,     422,     381,     349,     335,     338
     380,     364,     343,     337,     351,     364,     349,     324
     345,     348,     335,     346,     325,     338,     362,     377
     377,     375,     376,     353,     334,     337,     352,     376
     369,     347,     356,     356,     351,     357,     338,     334
     370,     359,     326,     337,     344,     367,     397,     397
     374,     354,     373,     384,     398,     391,     407,     385
     421,     435,     448,     447,     477,     496,     465,     458
     478,     455,     481,     445,     432,     480,     447,     424
     441,     420,     450,     441,     414,     457,     418,     398
     379,     409,     427,     402,     408,     410,     376,     437
     431,     422,     437,     438,     463,     462,     494,     474
     511,     514,     570,     577,     566,     638,     703,     733
     819,     876,     955,    1011,    1161,    1320,    1477,    1696
    1958,    2357,    2767,    3258,    4017,    4945,    5942,    7390
    9130,   10835,   12155,   12927,   12950,   12178,   11030,    9838
    8873,    8373,    8256,    8220,    8028,    7540,    6817,    5902
    4835,    3866,    3136,    2574,    2119,    1788,    1510,    1280
    1136,    1041,     921,     800,     751,     727,     697,     638
     598,     532,     497,     472,     491,     497,     453,     441
     442,     459,     426,     416,     437,     410,     394,     394
     371,     387,     393,     363,     356,     361,     371,     357
     416,     372,     359,     369,     310,     381,     348,     334
     351,     355,     288,     335,     370,     311,     330,     324
     320,     352,     346,     335,     322,     336,     327,     290
     323,     310,     316,     312,     306,     328,     315,     303
     293,     296,     331,     323,     313,     313,     303,     296
     298,     314,     302,     298,     319,     300,     274,     285
     303,     291,     286,     308,     312,     304,     300,     299
     296,     289,     287,     290,     295,     304,     298,     285
     293,     297,     294,     286,     275,     277,     305,     306
     299,     296,     299,     296,     296,     299,     304,     298
     297,     279,     271,     273,     300,     295,     305,     301
     263,     276,     289,     257,     265,     279,     310,     303
     270,     300,     281,     289,     283,     273,     292,     295
     278,     287,     317,     297,     275,     308,     277,     285
     269,     257,     295,     290,     290,     263,     304,     277
     285,     255,     260,     272,     290,     289,     305,     266
     285,     292,     290,     272,     259,     237,     262,     282
     271,     282,     305,     296,     277,     281,     268,     280
     283,     267,     260,     279,     260,     260,     274,     277
     277,     273,     256,     260,     279,     271,     269,     267
     267,     269,     273,     279,     270,     281,     280,     275
     263,     258,     280,     271,     264,     275,     287,     286
     279,     271,     229,     256,     293,     272,     260,     259
     283,     274,     285,     307,     302,     263,     256,     257
     251,     267,     239,     264,     259,     241,     247,     280
     269,     250,     271,     272,     239,     262,     249,     274
     229,     267,     248,     269,     249,     260,     222,     230
     259,     262,     292,     267,     268,     271,     246,     256
     265,     251,     262,     273,     237,     281,     268,     262
     260,     262,     263,     247,     235,     229,     256,     274
     268,     277,     271,     264,     246,     243,     262,     272
     262,     245,     233,     250,     260,     252,     232,     242
     251,     250,     257,     251,     263,     274,     248,     231
     237,     244,     239,     253,     256,     226,     222,     229
     249,     265,     252,     225,     224,     253,     264,     236
     232,     258,     258,     251,     272,     266,     238,     246
     253,     234,     236,     262,     234,     244,     252,     228
     242,     246,     240,     259,     257,     271,     258,     237
     256,     242,     206,     236,     259,     238,     256,     243
     229,     244,     272,     257,     228,     233,     262,     277
     214,     252,     222,     233,     243,     227,     222,     264
     246,     236,     239,     219,     206,     211,     267,     253
     253,     244,     243,     258,     245,     240,     234,     266
     253,     215,     223,     231,     227,     234,     229,     252
     240,     227,     226,     248,     259,     243,     223,     212
     223,     234,     240,     235,     234,     236,     228,     229
     230,     252,     258,     235,     233,     227,     227,     215
     228,     217,     221,     244,     242,     207,     199,     222
     221,     226,     207,     218,     199,     232,     224,     222
     223,     228,     266,     254,     241,     274,     212,     233
     235,     216,     234,     237,     221,     262,     213,     226
     210,     221,     234,     216,     244,     229,     240,     234
     225,     211,     216,     234,     235,     233,     253,     233
     229,     238,     242,     215,     207,     214,     230,     230
     226,     203,     203,     234,     217,     207,     230,     232
     223,     229,     234,     229,     209,     222,     224,     213
     220,     206,     214,     232,     232,     224,     219,     225
     225,     234,     241,     227,     227,     219,     213,     226
     223,     210,     211,     219,     199,     201,     233,     252
     263,     250,     232,     235,     225,     214,     204,     228
     230,     223,     231,     209,     211,     230,     216,     206
     211,     220,     216,     198,     211,     200,     209,     227
     222,     214,     216,     214,     219,     211,     243,     204
     209,     196,     177,     217,     207,     236,     236,     180
     199,     229,     225,     198,     194,     215,     237,     210
     223,     184,     192,     197,     210,     212,     222,     225
     226,     216,     217,     216,     214,     227,     238,     235
     202,     198,     213,     221,     218,     191,     203,     220
     228,     230,     230,     223,     214,     208,     224,     239
     219,     184,     183,     203,     215,     209,     217,     231
     226,     207,     185,     206,     216,     207,     228,     217
     209,     227,     243,     247,     243,     242,     227,     253
     237,     233,     241,     255,     270,     246,     245,     257
     273,     315,     324,     329,     370,     402,     456,     481
     541,     597,     656,     612,     601,     577,     563,     506
     457,     458,     447,     441,     489,     507,     471,     442
     431,     395,     354,     297,     310,     278,     271,     232
     271,     276,     230,     258,     225,     259,     230,     212
     211,     211,     189,     219,     221,     235,     218,     213
     210,     224,     218,     208,     210,     213,     215,     221
     216,     220,     226,     226,     235,     220,     221,     227
     224,     223,     211,     210,     206,     218,     218,     208
     206,     217,     221,     209,     206,     218,     215,     188
     182,     196,     199,     203,     206,     198,     199,     209
     221,     218,     212,     219,     203,     204,     217,     217
     207,     198,     198,     197,     214,     212,     219,     206
     211,     211,     211,     208,     211,     226,     179,     192
     211,     183,     218,     225,     191,     216,     222,     213
     209,     216,     240,     220,     213,     210,     204,     202
     232,     247,     192,     204,     224,     209,     224,     196
     202,     209,     186,     186,     207,     211,     210,     191
     213,     204,     201,     208,     234,     200,     191,     188
     194,     198,     210,     195,     214,     222,     222,     211
     214,     209,     219,     206,     240,     217,     205,     228
     237,     227,     237,     239,     221,     200,     214,     221
     240,     250,     247,     239,     229,     258,     277,     267
     264,     278,     309,     333,     325,     317,     315,     324
     365,     390,     390,     390,     391,     460,     505,     549
     631,     723,     857,    1038,    1166,    1305,    1535,    1786
    2059,    2197,    2424,    2520,    2454,    2386,    2207,    2100
    1884,    1749,    1690,    1603,    1651,    1652,    1554,    1589
    1496,    1360,    1190,    1085,     944,     797,     721,     622
     542,     525,     461,     407,     385,     400,     358,     315
     307,     304,     315,     289,     274,     234,     239,     230
     242,     225,     265,     242,     243,     236,     240,     244
     231,     247,     235,     221,     224,     216,     199,     212
     208,     208,     228,     222,     218,     212,     197,     202
     201,     205,     223,     212,     207,     216,     205,     200
     206,     194,     174,     185,     194,     188,     198,     188
     177,     174,     182,     192,     193,     197,     186,     187
     198,     197,     200,     222,     210,     203,     205,     169
     194,     195,     182,     180,     194,     210,     203,     205
     186,     167,     178,     174,     193,     217,     189,     168
     177,     198,     212,     219,     186,     178,     184,     187
     170,     193,     205,     198,     192,     183,     175,     183
     187,     184,     178,     160,     172,     178,     190,     179
     180,     172,     195,     190,     179,     181,     188,     199
     183,     189,     205,     172,     172,     182,     176,     190
     171,     189,     180,     161,     169,     172,     189,     211
     202,     213,     199,     172,     180,     189,     190,     200
     183,     173,     187,     190,     183,     185,     176,     165
     184,     190,     177,     178,     182,     176,     174,     176
     179,     195,     185,     182,     181,     186,     177,     169
     192,     184,     182,     177,     161,     169,     165,     162
     189,     181,     202,     180,     174,     180,     182,     173
     181,     193,     184,     191,     179,     180,     201,     222
     191,     186,     193,     189,     179,     182,     154,     181
     169,     142,     170,     166,     174,     150,     186,     193
     176,     198,     155,     186,     187,     181,     210,     207
     173,     179,     188,     175,     175,     182,     182,     176
     184,     178,     165,     172,     167,     167,     188,     185
     185,     191,     184,     188,     173,     163,     151,     128
     145,     178,     167,     154,     168,     185,     194,     192
     171,     146,     150,     162,     173,     191,     192,     169
     162,     180,     186,     190,     187,     170,     160,     157
     164,     178,     189,     169,     172,     156,     162,     174
     167,     163,     173,     178,     172,     171,     161,     153
     165,     185,     166,     168,     180,     191,     171,     159
     178,     193,     171,     150,     189,     171,     190,     173
     155,     156,     172,     156,     187,     157,     187,     155
     166,     162,     174,     168,     166,     161,     161,     180
     152,     155,     161,     190,     181,     181,     141,     165
     173,     159,     154,     190,     180,     182,     165,     152
     169,     168,     154,     166,     180,     181,     176,     173
     181,     179,     164,     169,     175,     189,     171,     147
     151,     159,     157,     164,     170,     187,     191,     171
     166,     173,     171,     166,     162,     159,     162,     160
     162,     161,     165,     171,     178,     158,     158,     152
     160,     178,     155,     161,     175,     164,     162,     155
     171,     158,     165,     150,     164,     165,     150,     167
     154,     178,     166,     167,     173,     175,     167,     155
     157,     154,     162,     177,     186,     137,     159,     184
     168,     183,     152,     141,     146,     159,     183,     172
     170,     172,     173,     171,     165,     168,     162,     170
     166,     159,     167,     162,     150,     160,     157,     160
     159,     167,     167,     168,     185,     158,     161,     165
     164,     150,     147,     135,     164,     185,     171,     172
     160,     165,     164,     163,     158,     168,     169,     167
     171,     166,     162,     161,     153,     158,     169,     165
     160,     154,     142,     159,     186,     176,     172,     165
     165,     151,     147,     147,     155,     168,     154,     156
     165,     163,     165,     153,     163,     189,     180,     166
     166,     162,     176,     166,     163,     162,     165,     155
     167,     161,     161,     177,     151,     191,     145,     154
     168,     175,     165,     169,     151,     167,     146,     148
     147,     163,     158,     183,     161,     168,     161,     180
     139,     139,     142,     159,     167,     153,     157,     179
     168,     173,     197,     178,     159,     174,     153,     156
     156,     175,     165,     166,     162,     151,     158,     170
     165,     160,     161,     178,     177,     161,     162,     153
     158,     166,     172,     166,     163,     166,     159,     163
     168,     164,     169,     181,     171,     151,     159,     171
     176,     173,     168,     181,     170,     161,     153,     149
     165,     186,     188,     175,     177,     173,     187,     177
     170,     181,     186,     166,     165,     176,     161,     176
     165,     154,     161,     142,     173,     179,     172,     184
     175,     192,     177,     155,     182,     172,     178,     177
     162,     157,     168,     166,     154,     174,     175,     189
     178,     197,     179,     182,     177,     170,     170,     166
     161,     170,     176,     166,     176,     185,     168,     178
     180,     184,     179,     165,     170,     177,     182,     183
     179,     174,     188,     207,     192,     180,     173,     168
     170,     177,     193,     196,     183,     184,     193,     187
     172,     169,     174,     171,     182,     194,     179,     171
     161,     161,     180,     176,     174,     172,     168,     185
     192,     177,     178,     192,     171,     179,     186,     181
     178,     162,     173,     190,     175,     174,     191,     187
     197,     167,     190,     206,     185,     194,     167,     171
     178,     177,     195,     212,     190,     215,     197,     195
     184,     194,     220,     225,     204,     184,     247,     280
     259,     262,     241,     268,     286,     284,     291,     310
     323,     327,     383,     363,     396,     455,     484,     584
     666,     803,     960,    1105,    1358,    1634,    1986,    2351
    2759,    3000,    3001,    2885,    2532,    2148,    1837,    1592
    1412,    1319,    1295,    1287,    1343,    1466,    1528,    1651
    1703,    1609,    1426,    1218,    1063,     910,     765,     630
     564,     521,     459,     410,     355,     339,     343,     315
     262,     253,     255,     234,     236,     233,     236,     229
     210,     213,     194,     193,     212,     211,     214,     211
     198,     187,     186,     191,     191,     199,     208,     196
     187,     186,     203,     196,     199,     210,     202,     193
     194,     186,     178,     195,     181,     179,     175,     185
     181,     173,     178,     165,     186,     195,     170,     175
     167,     158,     166,     143,     149,     167,     167,     177
     182,     163,     181,     184,     162,     166,     164,     163
     161,     181,     158,     162,     186,     170,     156,     171
     170,     159,     162,     164,     145,     149,     167,     174
     160,     168,     183,     174,     172,     149,     148,     173
     174,     160,     152,     159,     165,     163,     154,     164
     180,     163,     144,     148,     158,     159,     166,     159
     149,     161,     179,     169,     178,     167,     172,     168
     159,     150,     155,     149,     151,     160,     157,     159
     139,     146,     156,     167,     160,     135,     168,     164
     170,     147,     161,     174,     161,     164,     166,     146
     149,     147,     152,     165,     163,     169,     170,     150
     175,     164,     139,     161,     168,     152,     136,     165
     156,     167,     173,     160,     158,     174,     160,     172
     173,     162,     160,     172,     175,     150,     165,     156
     157,     147,     139,     157,     162,     149,     148,     152
     163,     163,     152,     144,     145,     148,     164,     176
     170,     179,     190,     168,     138,     140,     160,     158
     147,     155,     157,     159,     166,     168,     163,     152
     155,     174,     184,     168,     151,     156,     159,     151
     153,     150,     166,     165,     144,     148,     161,     157
     160,     153,     146,     149,     156,     150,     159,     146
     165,     174,     181,     157,     161,     172,     162,     144
     168,     155,     148,     151,     142,     145,     139,     153
     170,     156,     144,     145,     179,     148,     145,     154
     164,     139,     120,     146,     141,     154,     148,     151
     136,     159,     141,     167,     174,     170,     130,     143
     147,     162,     147,     150,     154,     139,     154,     154
     144,     137,     163,     155,     150,     143,     140,     152
     152,     154,     150,     155,     158,     156,     139,     136
     141,     152,     153,     154,     153,     163,     171,     151
     144,     163,     164,     151,     144,     145,     143,     149
     169,     164,     151,     141,     144,     142,     133,     154
     140,     131,     133,     147,     139,     147,     151,     137
     139,     122,     141,     149,     143,     135,     147,     152
     159,     158,     128,     138,     153,     140,     138,     157
     155,     145,     145,     159,     150,     141,     150,     149
     164,     141,     143,     155,     153,     172,     149,     133
     136,     141,     136,     158,     164,     153,     158,     144
     143,     141,     143,     142,     156,     144,     138,     151
     147,     149,     157,     145,     137,     146,     133,     127
     142,     142,     158,     154,     144,     147,     141,     161
     156,     145,     144,     156,     157,     151,     143,     131
     142,     139,     131,     147,     151,     150,     142,     140
     152,     148,     149,     161,     157,     151,     142,     145
     156,     154,     149,     148,     166,     175,     171,     178
     155,     154,     144,     141,     142,     160,     156,     153
     160,     145,     142,     158,     153,     145,     163,     150
     175,     168,     150,     159,     151,     167,     133,     144
     167,     155,     170,     148,     155,     158,     132,     164
     174,     152,     163,     175,     161,     131,     167,     152
     161,     166,     166,     145,     166,     184,     165,     170
     162,     163,     161,     170,     167,     156,     154,     159
     182,     184,     172,     180,     178,     182,     184,     159
     154,     170,     183,     194,     202,     199,     196,     212
     219,     231,     241,     241,     249,     251,     267,     282
     268,     266,     277,     262,     251,     245,     221,     221
     230,     215,     212,     237,     238,     232,     231,     235
     220,     233,     229,     222,     208,     195,     197,     184
     182,     192,     164,     142,     150,     164,     180,     175
     173,     168,     179,     179,     168,     156,     148,     155
     158,     169,     187,     152,     186,     166,     157,     166
     171,     190,     153,     175,     143,     161,     138,     182
     167,     156,     172,     160,     157,     160,     151,     162
     169,     181,     172,     163,     172,     167,     183,     167
     154,     140,     150,     159,     150,     152,     157,     166
     160,     151,     155,     155,     158,     160,     171,     168
     154,     166,     166,     158,     162,     175,     182,     167
     152,     165,     170,     174,     178,     165,     163,     162
     163,     180,     178,     177,     188,     194,     193,     182
     178,     179,     182,     195,     192,     170,     174,     186
     182,     167,     168,     185,     186,     200,     209,     196
     185,     198,     190,     211,     208,     205,     204,     237
     223,     261,     263,     249,     280,     242,     272,     262
     284,     275,     300,     324,     336,     366,     387,     398
     397,     447,     483,     491,     592,     630,     668,     814
     922,    1063,    1189,    1386,    1634,    1829,    2092,    2372
    2644,    2823,    2828,    2880,    2755,    2484,    2320,    2166
    1938,    1711,    1655,    1541,    1470,    1537,    1613,    1592
    1627,    1700,    1719,    1689,    1643,    1537,    1398,    1279
    1171,    1043,     905,     833,     748,     637,     556,     523
     481,     429,     412,     381,     333,     319,     321,     309
     297,     285,     262,     247,     259,     258,     233,     229
     219,     221,     230,     220,     203,     204,     204,     189
     175,     196,     210,     189,     176,     182,     206,     183
     172,     195,     174,     189,     175,     170,     141,     164
     161,     166,     189,     171,     186,     199,     181,     162
     171,     177,     171,     164,     168,     163,     155,     181
     183,     171,     147,     164,     167,     166,     152,     154
     156,     152,     158,     162,     144,     173,     145,     172
     169,     141,     133,     165,     153,     145,     157,     139
     142,     152,     163,     156,     145,     156,     176,     151
     145,     145,     149,     152,     159,     160,     156,     152
     173,     172,     150,     142,     159,     150,     141,     156
     148,     140,     150,     159,     157,     157,     151,     141
     151,     165,     157,     145,     152,     140,     130,     137
     154,     154,     151,     152,     151,     144,     135,     130
     140,     158,     148,     139,     139,     145,     149,     147
     149,     141,     152,     150,     141,     136,     145,     130
     136,     140,     149,     156,     137,     140,     167,     136
     143,     139,     132,     161,     139,     139,     124,     129
     137,     161,     149,     142,     147,     143,     146,     133
     154,     143,     143,     140,     139,     165,     141,     158
     143,     135,     152,     150,     151,     143,     149,     144
     142,     144,     145,     139,     149,     152,     156,     161
     156,     145,     170,     161,     134,     142,     143,     143
     152,     151,     144,     144,     170,     164,     142,     148
     152,     153,     150,     147,     149,     145,     143,     155
     152,     151,     144,     138,     145,     145,     130,     138
     145,     147,     158,     151,     130,     130,     126,     131
     141,     138,     153,     143,     136,     135,     152,     159
     139,     153,     148,     136,     136,     152,     130,     145
     139,     143,     138,     147,     144,     157,     155,     147
     150,     130,     131,     134,     120,     133,     149,     131
     150,     135,     128,     131,     134,     152,     142,     153
     137,     141,     158,     145,     143,     130,     135,     136
     133,     132,     138,     149,     143,     133,     127,     139
     129,     121,     130,     139,     153,     141,     140,     142
     138,     124,     126,     145,     126,     123,     125,     125
     130,     120,     125,     137,     135,     138,     146,     142
     133,     132,     146,     153,     139,     133,     131,     149
     151,     140,     132,     139,     146,     135,     132,     138
     130,     147,     150,     146,     145,     127,     127,     133
     134,     131,     146,     126,     126,     134,     117,     132
     132,     135,     120,     124,     140,     143,     128,     160
     144,     139,     122,     113,     134,     139,     141,     143
     154,     150,     145,     145,     129,     113,     126,     122
     123,     130,     121,     136,     124,     134,     130,     149
     144,     121,     113,     134,     123,     129,     126,     134
     143,     145,     149,     136,     144,     146,     137,     119
     112,     142,     147,     139,     135,     135,     129,     147
     144,     127,     131,     132,     124,     130,     149,     148
     134,     121,     112,     110,     111,     124,     133,     129
     131,     133,     132,     129,     147,     156,     147,     136
     140,     129,     130,     129,     125,     119,     131,     140
     131,     117,     131,     138,     133,     133,     127,     162
     134,     146,     147,     140,     128,     136,     112,     161
     116,     149,     112,     134,     138,     119,     105,     155
     122,     138,     135,     133,     130,     142,     142,     132
     148,     151,     166,     139,     128,     132,     136,     139
     131,     126,     123,     128,     137,     141,     147,     142
     132,     134,     128,     136,     140,     123,     122,     146
     143,     132,     143,     143,     128,     128,     121,     126
     136,     130,     132,     138,     149,     147,     150,     142
     135,     135,     132,     135,     143,     140,     135,     142
     133,     133,     146,     147,     156,     156,     143,     140
     129,     136,     131,     138,     142,     136,     137,     138
     147,     150,     151,     142,     122,     130,     143,     139
     134,     128,     145,     129,     139,     133,     133,     136
     137,     137,     132,     139,     141,     125,     131,     119
     130,     147,     129,     151,     170,     149,     148,     148
     122,     126,     161,     131,     137,     132,     127,     103
     121,     135,     151,     146,     139,     141,     148,     160
     161,     153,     141,     130,     137,     138,     143,     146
     148,     148,     133,     140,     162,     158,     143,     149
     156,     154,     157,     155,     155,     162,     188,     180
     166,     177,     177,     170,     166,     172,     195,     188
     187,     202,     213,     231,     227,     220,     222,     231
     255,     281,     279,     253,     264,     313,     359,     376
     384,     428,     468,     505,     547,     603,     671,     754
     797,     897,    1001,    1099,    1217,    1269,    1259,    1238
    1216,    1225,    1218,    1032,    1057,     941,     905,     853
     789,     783,     761,     776,     787,     763,     766,     819
     788,     806,     819,     755,     707,     758,     709,     608
     645,     587,     529,     434,     456,     411,     362,     331
     333,     275,     267,     259,     237,     237,     220,     217
     237,     218,     203,     209,     186,     184,     189,     183
     178,     174,     140,     146,     162,     161,     154,     154
     145,     145,     144,     153,     150,     136,     152,     168
     157,     135,     123,     125,     130,     144,     147,     137
     147,     140,     122,     140,     141,     125,     135,     134
     133,     130,     132,     145,     131,     108,     124,     143
     128,     125,     138,     149,     144,     127,     128,     125
     125,     140,     127,     143,     141,     137,     115,     104
     105,     125,     128,     137,     116,     128,     118,     117
     123,     123,     117,     147,     136,     144,     131,     122
     130,     126,     124,     133,     145,     144,     130,     111
     109,     116,     124,     133,     132,     124,     138,     120
     119,     136,     115,     118,     131,     121,     122,     140
     137,     119,     124,     129,     136,     122,     103,     110
     125,     127,     115,     123,     116,     117,     117,     111
     134,     126,     116,     116,     128,     123,     115,     116
     109,     126,     144,     136,     131,     125,     119,     111
     113,     115,     119,     127,     109,     122,     143,     144
     124,     110,     120,     124,     115,     103,     114,     121
     110,      95,     111,     138,     131,     138,     118,     126
     121,     121,     129,     103,     130,     129,     127,     122
     115,     131,     104,     115,     110,     117,     151,     129
     119,     122,     115,     132,     123,     130,     120,     119
     138,     140,     125,     120,     150,     148,     127,     151
     132,     129,     119,     105,     111,     136,     117,     125
     132,     123,     116,     123,     116,     118,     107,     104
     112,     126,     129,     114,     117,     142,     126,     126
     114,     120,     123,     121,     127,     121,     114,     111
     120,     117,     111,     118,     122,     127,     132,     129
     125,     118,     115,     119,     118,     119,     119,     117
     120,     125,     120,     121,     121,     114,     114,     117
     116,     109,     114,     119,     117,     118,     111,     122
     120,     140,     128,     125,     129,     129,     122,     123
     125,     124,     119,     105,     109,     131,     109,     104
     122,     112,     128,     136,     122,     118,     115,     110
     118,     110,     104,     104,     120,     141,     130,     123
     121,     115,     110,     116,     121,     115,     115,     114
     120,     133,     122,     104,     111,     114,     122,     117
     120,     113,     106,     118,     127,     127,     130,     123
     123,     120,     107,      89,     113,     112,     119,     127
     122,     108,     113,     118,     118,     113,     109,      99
     108,     127,     126,     127,     131,     119,     115,     120
     122,     123,     105,     105,     124,     114,     109,     116
     119,     130,     116,     113,     112,     113,     116,     123
     113,     117,     114,     113,     117,     108,     114,     110
     125,     131,     118,     115,     111,     102,     109,     104
     112,     106,     113,     122,     112,     121,     130,     129
     108,     100,     113,     130,     120,     108,     110,     118
     110,     124,     124,     115,     122,     113,     119,     107
     108,     117,     121,     105,      91,     107,     113,     119
     131,     112,     116,     116,     107,     116,     117,     123
     118,     116,     113,     117,     119,     120,     123,     110
     129,     111,     106,     123,     113,     106,     119,     143
     140,     120,     109,     113,     129,     140,     121,     101
     113,     130,     132,     132,     131,     132,     150,     155
     137,     137,     146,     152,     164,     160,     184,     190
     185,     216,     237,     216,     220,     229,     231,     233
     238,     212,     202,     210,     203,     188,     191,     194
     176,     195,     169,     175,     176,     192,     171,     185
     163,     149,     160,     166,     163,     191,     160,     142
     177,     163,     119,     149,     140,     134,     122,     137
     138,     110,     147,     137,     117,     129,     114,     106
     101,     135,     118,     122,     130,     108,     121,     106
     120,     111,     110,     113,     106,      99,     107,     109
     121,     127,     117,     119,     105,     115,     116,     107
     103,     104,     107,     106,     103,      96,     104,     105
     100,     101,     110,     114,     119,     120,     112,     117
     116,     111,     108,     100,     105,     117,     126,     126
     118,     114,     114,     115,      98,     107,     117,     112
      99,     110,     124,     122,     113,     111,     103,      98
     117,     114,     114,     104,     107,     111,     109,     104
      98,     101,      90,     118,     116,     110,     123,     117
      99,     102,     102,     114,     120,     134,     124,     109
     111,     109,     114,     112,     112,     120,     106,     123
     117,      99,     105,     100,     122,     127,     102,     123
     125,     129,     137,     106,     104,     115,     113,     108
     102,     116,     110,     109,     102,      93,      99,      94
     112,     123,     110,     104,     103,     108,     118,     122
     115,     112,     108,     105,     107,     107,     108,     106
     107,     114,     109,     108,     119,     117,     109,     109
     117,     111,     106,     123,     113,      97,      99,     101
     103,     114,     108,     102,     117,     127,     116,     102
      97,     109,     119,     104,     118,     119,     121,      97
     113,     104,      93,      99,     121,     106,      97,      95
     118,     125,     122,     127,     116,     124,     111,     104
     122,     108,     112,      94,     102,      89,     112,     100
     129,     110,     120,     120,     103,     104,     115,     112
     123,     130,     130,     105,     117,     108,     113,     117
     131,     116,     124,     115,     108,     109,     116,     119
     120,     115,     109,     109,     113,     114,     109,     118
     111,     107,     102,      98,     102,     107,     113,     126
     115,      96,     108,     124,     116,     102,     105,     112
     110,     108,     105,     103,     126,     138,     108,      98
     111,     105,     112,     104,     108,     118,     116,     113
     116,     118,     105,     122,     126,     113,     103,     120
     120,     124,     118,     103,     105,      99,     105,     118
     106,     124,      96,      99,     102,     112,     120,     107
     107,     108,      91,     118,     103,     119,     106,     107
      84,     108,      86,     114,     122,     110,     103,     106
     112,     111,     117,      95,     115,     122,     108,     121
     109,     131,     117,     124,     121,     116,     124,      98
     105,     113,      99,      97,      94,     101,     122,     103
      95,     107,     104,     118,     125,     128,     120,     100
      99,     103,     119,     133,     133,     117,     103,      94
     105,     115,     114,     117,     114,     110,     110,     111
     111,     110,     109,     110,     114,     113,     100,     112
     125,     110,     104,     111,     116,     117,     104,      97
     100,     119,     118,     111,     107,      98,     110,     113
     104,      96,      91,     111,     102,     115,     123,     106
     110,     114,     121,     116,     128,     113,      93,     105
     105,     111,     113,     108,     106,     102,     118,      97
     112,      98,     109,     112,     121,     103,     120,     113
     109,     104,     114,      99,     104,     110,     108,     106
     104,     115,     110,     114,     102,     113,     115,     104
      93,      91,     103,     109,     107,     110,     126,     129
     108,     110,     120,     118,     109,     107,     108,     107
     104,     108,     114,     106,     107,     108,     108,     108
     104,     106,     111,     116,     104,      98,     104,     100
     101,     113,     122,     119,     111,     103,     111,     120
     117,     120,     105,     100,     105,      99,     106,     112
     114,     108,     105,     118,     105,     111,     105,     108
     101,     104,     109,     106,     107,     114,     131,     128
     110,     123,     116,     103,      91,     124,     120,     120
     105,     108,     111,     105,     109,     110,     106,     113
     110,     108,     120,     109,     106,     105,     104,     105
     108,     111,     117,     113,     107,     106,     118,     129
     119,     113,     125,     115,     120,     119,     118,     114
     107,     115,     118,     107,     101,     111,     107,     111
     115,     114,     114,     105,     111,     118,     103,     113
     128,     119,     107,     110,     116,     114,     113,     115
     119,     121,     119,     119,     112,      97,      93,     102
     125,     118,     103,     125,     110,     103,     111,     124
     111,     108,     118,     117,     122,     111,     101,     109
     113,     124,     108,     109,     108,     134,     105,     104
     105,     113,     105,     111,     107,      97,     113,     139
     122,     120,     116,     125,      97,     105,     109,     113
     117,     139,     120,     121,     116,     103,     123,     128
     117,     130,     114,     125,     110,     112,     122,     106
     107,     115,     117,     117,     131,     108,     114,     113
     123,     130,     129,     111,     115,     118,     115,     128
     135,     120,     111,     117,     115,     114,     109,     104
     109,     112,     112,     106,      99,     104,     107,     113
     115,     115,     120,     112,     104,     107,     111,     113
     117,     122,     117,     111,     120,     127,     116,     111
     103,     110,     107,     107,     113,     115,     121,     112
     111,     107,     134,     134,     122,     140,     101,     119
     112,     110,     101,     124,     111,     116,     127,     135
     113,     107,     112,     124,     121,     115,     114,      98
     111,     106,     115,     135,     138,     131,     120,     116
     103,     119,     135,     102,     112,     131,     138,     118
     126,     114,     110,     130,     126,     123,     123,     115
     111,     120,     121,     120,     126,     121,     118,     103
     129,     120,     106,     119,     122,     124,     117,     125
     124,     124,     134,     124,     139,     137,     123,     131
     135,     123,     119,     132,     134,     126,     135,     130
     123,     134,     141,     129,     115,     129,     132,     133
     135,     133,     142,     162,     154,     139,     138,     156
     159,     155,     159,     173,     167,     196,     191,     190
     203,     180,     219,     237,     230,     235,     270,     292
     318,     342,     327,     357,     376,     360,     359,     420
     389,     404,     396,     392,     369,     343,     325,     345
     348,     340,     339,     275,     261,     256,     270,     270
     307,     267,     260,     264,     299,     287,     296,     277
     304,     287,     247,     282,     272,     252,     260,     252
     256,     251,     219,     222,     225,     219,     191,     192
     192,     189,     173,     155,     166,     164,     154,     155
     148,     147,     146,     137,     139,     145,     135,     139
     128,     114,     128,     143,     151,     135,     123,     130
     130,     122,     120,     126,     128,     133,     127,     131
     136,     121,     123,     120,     121,     107,     107,     122
     139,     126,     123,     146,     131,     110,     120,     125
     124,     120,     116,     128,     117,     124,     109,     131
     113,     124,     130,     130,     111,     135,     119,     124
     114,     128,     104,     132,     134,     100,     132,     131
     145,     128,     144,     129,     101,     120,     133,     110
     129,     128,     108,     128,     127,     125,     138,     120
     107,     124,     115,     114,     124,     115,     102,     124
     121,     126,     123,     116,     115,     125,     118,     102
     107,     116,     121,     113,     100,     122,     135,     125
     113,     119,     128,     119,     112,     118,     125,     131
     117,     117,     126,     118,     126,     124,     115,     122
     119,     111,     122,     134,     136,     126,     116,     118
     119,     130,     122,     118,     121,     117,     114,     105
      99,     113,     115,     108,     106,     111,     120,     115
     127,     107,     120,     113,     130,     125,     137,     101
     120,     119,     116,     113,     115,     119,     132,     147
     116,     130,     130,     133,     123,     106,     106,     106
     130,     111,     107,     132,     111,     124,     131,     130
     116,     130,     129,     125,     124,     127,     106,     110
     129,     121,     117,     122,     119,     133,     115,     105
     112,     117,     111,     128,     139,     124,     115,     125
     119,     130,     118,     111,     104,     103,     123,     120
     116,     131,     134,     122,     117,     123,     137,     138
     127,     143,     156,     138,     119,     122,     129,     129
     124,     130,     137,     138,     132,     129,     122,     116
     123,     121,     102,     119,     112,     113,     107,     128
     118,     105,     116,     122,     125,     137,     132,     123
     144,     123,     116,     131,     123,     113,     127,     125
     131,     129,     125,     149,     133,     124,     121,     140
     124,     124,     139,     128,     138,     140,     130,     101
     115,     121,     109,     119,     132,     129,     120,     105
     134,     131,     142,     135,     108,     115,     117,     133
     137,     112,     111,     128,     138,     133,     136,     132
     127,     116,     116,     114,     121,     137,     132,     135
     137,     135,     141,     127,     114,     116,     112,     108
     124,     138,     136,     126,     120,     115,     106,     107
     122,     130,     116,     126,     137,     129,     122,     121
     119,     120,     115,     135,     131,     124,     127,     119
     131,     140,     121,     133,     132,     110,     115,     130
     131,     127,     130,     129,     136,     119,     132,     120
     118,     132,     144,     124,     130,     135,     142,     115
     139,     124,     146,     150,     106,     116,     143,     133
     145,     155,     126,     116,     121,     116,     144,     135
     122,     134,     127,     128,     129,     137,     122,     130
     125,     117,     123,     115,     114,     129,     134,     131
     129,     128,     124,     140,     141,     129,     139,     129
     130,     137,     137,     124,     125,     140,     130,     127
     129,     127,     128,     126,     132,     144,     132,     120
     126,     129,     132,     138,     137,     129,     137,     131
     123,     143,     140,     148,     142,     136,     140,     144
     133,     136,     139,     120,     141,     138,     132,     147
     162,     142,     141,     164,     168,     153,     146,     154
     172,     181,     204,     208,     193,     191,     185,     219
     220,     233,     230,     225,     236,     226,     244,     242
     249,     234,     237,     257,     191,     207,     226,     195
     187,     175,     185,     174,     198,     169,     176,     201
     184,     198,     189,     179,     189,     187,     206,     223
     203,     175,     175,     187,     183,     176,     186,     178
     166,     167,     167,     159,     160,     166,     164,     150
     162,     162,     158,     161,     155,     155,     160,     165
     163,     145,     136,     140,     147,     147,     142,     139
     134,     140,     140,     130,     136,     151,     157,     148
     142,     160,     156,     160,     149,     136,     154,     144
     147,     140,     137,     150,     149,     148,     153,     138
     140,     146,     162,     151,     147,     135,     141,     155
     135,     138,     142,     162,     139,     144,     146,     134
     139,     153,     184,     152,     156,     140,     158,     163
     155,     139,     154,     131,     137,     144,     131,     165
     182,     165,     175,     149,     161,     172,     171,     165
     146,     162,     179,     173,     179,     192,     178,     159
     176,     192,     178,     163,     173,     187,     186,     190
     196,     216,     211,     236,     227,     217,     246,     251
     237,     251,     247,     262,     290,     287,     296,     301
     317,     337,     335,     379,     421,     418,     431,     454
     487,     538,     605,     651,     682,     725,     755,     811
     871,     881,     916,     910,     909,     853,     828,     819
     786,     779,     735,     682,     608,     616,     564,     560
     540,     486,     509,     513,     483,     494,     534,     449
     505,     486,     497,     484,     531,     508,     524,     536
     569,     613,     555,     604,     578,     570,     528,     537
     513,     455,     472,     407,     394,     382,     384,     354
     325,     321,     286,     274,     261,     270,     267,     263
     238,     250,     218,     208,     211,     222,     209,     194
     198,     191,     163,     175,     184,     187,     187,     191
     174,     174,     175,     183,     179,     168,     165,     164
     162,     159,     164,     167,     167,     156,     148,     153
     153,     162,     155,     146,     154,     150,     155,     152
     145,     132,     130,     134,     125,     127,     147,     168
     166,     143,     159,     162,     148,     136,     127,     136
     151,     147,     150,     132,     145,     146,     136,     133
     142,     145,     163,     136,     145,     178,     167,     141
     161,     138,     144,     138,     153,     156,     150,     123
     158,     159,     148,     143,     150,     169,     137,     114
     140,     125,     143,     131,     141,     128,     124,     133
     141,     125,     122,     145,     153,     139,     120,     135
     150,     143,     138,     143,     138,     148,     146,     138
     121,     136,     141,     135,     141,     139,     136,     144
     147,     138,     146,     153,     152,     147,     143,     138
     137,     146,     144,     143,     145,     131,     127,     139
     147,     148,     154,     163,     155,     135,     129,     129
     137,     138,     132,     129,     132,     144,     143,     135
     145,     140,     147,     126,     134,     163,     143,     137
     162,     152,     138,     147,     153,     131,     147,     130
     146,     138,     132,     143,     135,     153,     139,     130
     134,     150,     138,     148,     127,     131,     122,     132
     149,     148,     135,     137,     131,     125,     129,     145
     143,     115,     141,     123,     157,     137,     144,     132
     133,     132,     136,     142,     135,     141,     143,     150
     127,     134,     123,     135,     131,     121,     122,     160
     174,     150,     127,     140,     143,     152,     142,     146
     157,     147,     128,     126,     136,     137,     142,     142
     135,     138,     131,     122,     139,     142,     133,     134
     135,     153,     148,     140,     139,     139,     133,     129
     142,     147,     149,     152,     152,     139,     156,     144
     134,     144,     139,     152,     153,     133,     135,     135
     129,     131,     155,     139,     128,     120,     134,     113
     126,     150,     141,     129,     134,     144,     132,     126
     142,     159,     139,     139,     153,     127,     145,     128
     133,     134,     133,     147,     132,     127,     116,     132
     121,     148,     136,     140,     144,     148,     148,     143
     155,     135,     127,     134,     146,     149,     163,     152
     135,     136,     140,     144,     143,     131,     126,     124
     117,     129,     139,     145,     138,     146,     145,     132
     133,     125,     125,     133,     133,     139,     139,     132
     137,     137,     127,     129,     144,     152,     147,     143
     145,     133,     140,     144,     145,     144,     141,     132
     135,     141,     143,     141,     133,     130,     130,     125
     138,     144,     138,     133,     137,     138,     133,     134
     152,     132,     143,     130,     122,     145,     166,     163
     154,     157,     143,     138,     113,     148,     150,     124
     149,     138,     137,     133,     135,     141,     135,     134
     120,     114,     142,     150,     131,     143,     151,     148
     137,     120,     128,     132,     145,     151,     161,     136
     138,     147,     137,     119,     130,     143,     149,     155
     151,     143,     155,     141,     122,     117,     124,     143
     150,     158,     150,     148,     155,     144,     129,     133
     146,     146,     141,     140,     130,     126,     138,     154
     155,     139,     137,     136,     143,     139,     137,     141
     129,     142,     133,     138,     157,     150,     139,     131
     138,     142,     156,     154,     162,     142,     135,     131
     140,     146,     137,     169,     155,     143,     131,     138
     147,     147,     142,     140,     139,     142,     164,     169
     153,     138,     134,     156,     156,     155,     150,     151
     139,     162,     139,     125,     137,     120,     153,     132
     132,     139,     141,     132,     133,     158,     156,     148
     142,     137,     145,     134,     147,     150,     161,     158
     140,     153,     129,     136,     146,     154,     160,     155
     150,     142,     137,     144,     139,     129,     145,     144
     140,     143,     151,     153,     138,     137,     150,     146
     143,     148,     146,     139,     142,     152,     137,     144
     146,     139,     124,     139,     143,     146,     148,     129
     144,     146,     141,     158,     149,     150,     165,     144
     152,     151,     157,     165,     138,     141,     155,     143
     130,     140,     144,     147,     138,     149,     157,     168
     156,     143,     157,     151,     163,     142,     144,     162
     169,     184,     144,     151,     145,     150,     137,     157
     147,     160,     144,     153,     138,     160,     142,     151
     172,     178,     165,     171,     150,     165,     167,     153
     158,     174,     167,     172,     149,     148,     165,     182
     174,     165,     174,     174,     172,     164,     180,     189
     180,     181,     191,     179,     183,     187,     194,     193
     188,     190,     185,     198,     205,     201,     196,     195
     214,     217,     212,     227,     226,     230,     230,     255
     278,     281,     280,     290,     299,     333,     350,     329
     345,     390,     393,     419,     460,     457,     482,     561
     570,     621,     655,     705,     691,     743,     811,     743
     793,     819,     757,     725,     678,     699,     616,     640
     595,     557,     551,     542,     514,     435,     421,     435
     401,     398,     393,     426,     354,     396,     385,     388
     389,     421,     363,     413,     421,     450,     460,     446
     472,     511,     495,     480,     497,     501,     490,     506
     500,     488,     482,     448,     393,     375,     381,     365
     356,     316,     317,     306,     284,     279,     268,     259
     252,     253,     244,     226,     223,     213,     201,     198
     217,     223,     199,     199,     199,     199,     207,     197
     182,     175,     170,     185,     190,     171,     175,     177
     166,     173,     198,     181,     172,     156,     155,     178
     178,     169,     174,     171,     175,     177,     149,     160
     151,     166,     165,     146,     163,     154,     157,     152
     143,     148,     161,     135,     162,     151,     148,     189
     163,     147,     170,     170,     151,     141,     157,     147
     150,     146,     168,     172,     161,     135,     141,     161
     155,     153,     145,     144,     138,     148,     147,     162
     156,     158,     146,     141,     153,     174,     163,     159
     139,     130,     140,     155,     147,     147,     155,     150
     154,     146,     152,     159,     151,     136,     141,     162
     163,     151,     166,     169,     157,     156,     145,     154
     159,     140,     142,     146,     142,     144,     156,     166
     158,     156,     155,     165,     153,     135,     140,     147
     145,     146,     140,     143,     156,     130,     152,     153
     127,     141,     149,     163,     142,     154,     160,     166
     161,     157,     152,     144,     148,     161,     154,     132
     151,     148,     160,     153,     141,     159,     140,     127
     149,     153,     149,     168,     149,     148,     158,     163
     157,     137,     133,     121,     157,     147,     156,     151
     160,     141,     183,     162,     162,     148,     136,     146
     147,     163,     167,     146,     155,     149,     156,     162
     151,     166,     154,     149,     136,     131,     152,     155
     145,     158,     168,     157,     148,     145,     149,     157
     153,     153,     160,     152,     146,     156,     159,     158
     161,     156,     153,     147,     134,     141,     156,     121
     144,     140,     137,     150,     148,     151,     155,     143
     147,     151,     135,     136,     156,     151,     155,     162
     173,     156,     142,     182,     163,     144,     153,     158
     165,     130,     125,     131,     155,     145,     139,     149
     139,     132,     146,     139,     149,     173,     186,     156
     146,     144,     155,     152,     148,     155,     138,     148
     150,     167,     151,     128,     118,     156,     156,     159
     146,     144,     136,     137,     150,     160,     168,     164
     163,     177,     165,     146,     143,     146,     149,     140
     144,     159,     168,     161,     147,     143,     146,     162
     154,     138,     149,     157,     159,     160,     148,     147
     158,     162,     150,     140,     143,     140,     159,     169
     157,     140,     140,     135,     147,     153,     158,     155
     151,     141,     148,     151,     141,     143,     144,     147
     153,     144,     170,     163,     162,     183,     167,     160
     145,     160,     150,     153,     170,     168,     151,     130
     140,     138,     139,     134,     142,     166,     126,     162
     175,     154,     182,     153,     147,     154,     149,     140
     169,     154,     145,     166,     172,     158,     152,     150
     149,     144,     149,     152,     141,     134,     130,     147
     159,     159,     150,     127,     137,     156,     142,     153
     149,     140,     142,     134,     162,     165,     151,     140
     154,     154,     154,     153,     157,     165,     163,     163
     158,     146,     139,     136,     142,     158,     161,     159
     154,     148,     153,     153,     156,     161,     169,     155
     130,     138,     157,     150,     165,     156,     140,     151
     150,     159,     158,     152,     148,     154,     182,     169
     170,     164,     167,     160,     152,     157,     157,     138
     159,     170,     163,     151,     152,     158,     150,     185
     156,     137,     134,     164,     164,     169,     172,     159
     164,     146,     165,     161,     156,     153,     176,     170
     174,     161,     144,     149,     160,     141,     136,     142
     156,     161,     173,     165,     155,     157,     159,     161
     152,     146,     160,     163,     156,     158,     166,     162
     172,     165,     158,     164,     162,     174,     157,     163
     162,     157,     165,     160,     167,     187,     194,     178
     182,     186,     169,     170,     169,     164,     157,     158
     167,     169,     179,     185,     172,     175,     176,     182
     203,     192,     186,     187,     186,     189,     174,     190
     209,     189,     202,     203,     204,     213,     201,     201
     186,     188,     200,     184,     176,     192,     181,     190
     185,     180,     169,     182,     192,     202,     154,     187
     187,     175,     184,     180,     178,     170,     185,     171
     174,     188,     202,     176,     178,     172,     184,     177
     188,     188,     203,     184,     182,     175,     166,     187
     189,     171,     184,     187,     185,     186,     187,     190
     172,     169,     173,     167,     163,     168,     180,     179
     185,     177,     179,     184,     170,     157,     161,     164
     164,     156,     161,     180,     178,     160,     164,     163
     159,     169,     157,     160,     168,     172,     160,     173
     179,     170,     165,     168,     162,     148,     152,     163
     171,     180,     164,     160,     161,     169,     165,     146
     167,     168,     187,     163,     164,     177,     172,     179
     173,     183,     174,     143,     156,     163,     161,     173
     168,     175,     187,     147,     195,     195,     169,     158
     188,     174,     184,     171,     164,     157,     155,     186
     193,     180,     183,     162,     188,     181,     188,     174
     179,     174,     182,     173,     190,     178,     190,     194
     176,     180,     179,     195,     181,     180,     181,     183
     182,     193,     206,     199,     193,     203,     216,     213
     214,     221,     230,     226,     230,     237,     219,     220
     239,     236,     234,     227,     229,     262,     278,     286
     291,     297,     335,     323,     307,     315,     321,     347
     347,     339,     350,     385,     420,     396,     417,     435
     436,     453,     472,     465,     498,     501,     528,     524
     504,     521,     484,     488,     496,     506,     487,     473
     473,     457,     457,     430,     392,     396,     360,     374
     381,     365,     330,     341,     345,     334,     337,     319
     325,     314,     332,     324,     314,     339,     325,     330
     347,     361,     326,     323,     338,     351,     345,     304
     318,     379,     343,     360,     373,     355,     337,     357
     364,     368,     348,     352,     359,     359,     340,     321
     320,     316,     296,     298,     272,     261,     283,     263
     239,     268,     268,     250,     232,     209,     216,     227
     242,     242,     205,     207,     227,     213,     205,     204
     211,     217,     215,     205,     204,     194,     194,     184
     176,     178,     200,     189,     180,     186,     200,     217
     205,     183,     204,     180,     185,     188,     173,     160
     182,     215,     162,     175,     158,     183,     196,     197
     179,     174,     188,     180,     210,     192,     160,     172
     166,     179,     218,     144,     176,     195,     155,     162
     158,     188,     191,     169,     185,     175,     165,     172
     159,     170,     176,     173,     171,     175,     165,     184
     157,     153,     165,     152,     159,     173,     170,     160
     155,     169,     166,     151,     166,     168,     177,     181
     174,     167,     166,     165,     163,     166,     170,     180
     164,     147,     163,     169,     166,     172,     174,     181
     184,     169,     160,     160,     161,     161,     158,     173
     173,     167,     157,     149,     143,     150,     159,     146
     148,     163,     183,     178,     182,     162,     160,     161
     167,     163,     175,     169,     164,     153,     151,     170
     160,     173,     151,     162,     166,     169,     151,     155
     168,     151,     150,     186,     150,     161,     173,     191
     157,     165,     154,     167,     153,     176,     136,     154
     165,     176,     168,     172,     159,     173,     147,     162
     159,     160,     180,     171,     152,     158,     174,     169
     180,     171,     157,     153,     156,     161,     152,     157
     161,     169,     174,     168,     166,     166,     157,     171
     181,     184,     175,     163,     172,     169,     150,     144
     149,     165,     167,     162,     162,     153,     163,     176
     171,     162,     155,     170,     164,     170,     175,     157
     166,     150,     152,     157,     172,     170,     161,     172
     169,     179,     165,     164,     166,     189,     186,     179
     173,     153,     179,     182,     175,     156,     153,     178
     139,     144,     167,     155,     166,     153,     152,     147
     175,     175,     175,     166,     155,     180,     139,     168
     173,     159,     180,     148,     167,     182,     180,     175
     179,     172,     172,     174,     154,     167,     157,     152
     159,     157,     171,     171,     172,     165,     172,     160
     153,     169,     178,     161,     170,     172,     169,     175
     173,     176,     177,     166,     158,     158,     166,     167
     176,     185,     173,     161,     157,     162,     164,     165
     161,     159,     168,     172,     167,     163,     153,     164
     179,     175,     153,     162,     178,     177,     179,     173
     168,     167,     167,     200,     198,     157,     137,     143
     163,     159,     171,     178,     145,     162,     167,     180
     172,     167,     162,     151,     169,     172,     156,     179
     170,     160,     210,     155,     172,     135,     184,     142
     180,     168,     167,     184,     154,     169,     172,     160
     173,     160,     153,     160,     163,     154,     164,     196
     170,     177,     191,     175,     165,     157,     162,     151
     164,     164,     152,     155,     151,     153,     168,     166
     180,     161,     175,     188,     169,     149,     161,     182
     180,     182,     175,     175,     178,     168,     160,     155
     174,     180,     154,     149,     168,     173,     159,     166
     171,     171,     171,     163,     161,     170,     162,     167
     159,     158,     164,     160,     175,     180,     157,     159
     174,     180,     163,     169,     183,     187,     180,     178
     178,     191,     143,     152,     158,     159,     175,     170
     167,     162,     173,     166,     159,     149,     144,     154
     161,     168,     163,     153,     177,     166,     167,     156
     155,     153,     155,     161,     171,     156,     167,     166
     179,     182,     189,     170,     159,     157,     175,     175
     173,     175,     169,     170,     136,     134,     178,/
